Timestamp,ECG,Temp,BPM,SpO2,RR
2026-06-28T11:43:39.587222,18.42852113393442,28.75,130.8,93.4,22.6
2026-06-28T11:43:39.598891,35.15763960726078,28.75,130.8,93.4,22.6
2026-06-28T11:43:39.620516,-24.080524268144273,28.75,130.8,93.4,22.6
2026-06-28T11:43:39.623984,7.036415625781192,28.75,130.8,93.4,22.6
2026-06-28T11:43:39.658832,51.06214476641063,28.75,130.8,93.4,22.6
2026-06-28T11:43:39.661901,-43.21378807745633,28.75,130.8,93.4,22.6
2026-06-28T11:43:39.713926,-75.77820208817097,28.75,130.8,93.4,22.6
2026-06-28T11:43:39.719537,-28.818376721014168,28.75,130.8,93.4,22.6
2026-06-28T11:43:39.767803,44.15569686262667,28.75,130.8,93.4,22.6
2026-06-28T11:43:39.775273,55.35629402701535,28.75,130.8,93.4,22.6
2026-06-28T11:43:39.818106,54.2492379084092,28.75,130.8,93.4,22.6
2026-06-28T11:43:39.821085,62.535217642053446,28.75,130.8,93.4,22.6
2026-06-28T11:43:39.824153,21.938042357098745,28.75,130.8,93.4,22.6
2026-06-28T11:43:39.884361,-16.669182219791974,28.75,130.8,93.4,22.6
2026-06-28T11:43:39.887294,-21.625267840285748,28.75,130.8,93.4,22.6
2026-06-28T11:43:39.918295,-11.306214487240986,28.75,130.8,93.4,22.6
2026-06-28T11:43:39.921207,-36.880802152201134,28.75,130.8,93.4,22.6
2026-06-28T11:43:39.958855,-32.8174976834688,28.75,130.8,93.4,22.6
2026-06-28T11:43:39.961759,-18.437690238243917,28.75,130.8,93.4,22.6
2026-06-28T11:43:40.001287,-43.28537329070779,28.75,130.8,93.4,22.6
2026-06-28T11:43:40.004637,-24.11839803970745,28.75,130.8,93.4,22.6
2026-06-28T11:43:40.008178,0.7806658551652834,28.75,130.8,93.4,22.6
2026-06-28T11:43:40.054339,-26.87065133917156,28.75,130.8,93.4,22.6
2026-06-28T11:43:40.084334,-36.86307673640859,28.75,130.8,93.4,22.6
2026-06-28T11:43:40.182336,-35.703533185150846,28.75,130.8,93.4,22.6
2026-06-28T11:43:40.184968,-12.88653642451454,28.75,130.8,93.4,22.6
2026-06-28T11:43:40.188028,-46.161224706673735,28.75,130.8,93.4,22.6
2026-06-28T11:43:40.190366,12.511677499883863,28.75,130.8,93.4,22.6
2026-06-28T11:43:40.232167,66.95465966187864,28.75,130.8,93.4,22.6
2026-06-28T11:43:40.234714,-48.217179406179454,28.75,130.8,93.4,22.6
2026-06-28T11:43:40.274350,-6.342141392413463,28.75,130.8,93.4,22.6
2026-06-28T11:43:40.276645,1.634951306086772,28.75,130.8,93.4,22.6
2026-06-28T11:43:40.279109,-5.939754125362523,28.75,130.8,93.4,22.6
2026-06-28T11:43:40.322743,9.09292874605143,28.75,130.8,93.4,22.6
2026-06-28T11:43:40.325667,-26.916457976573493,28.75,130.8,93.4,22.6
2026-06-28T11:43:40.361990,-17.200040237509718,28.75,130.8,93.4,22.6
2026-06-28T11:43:40.391083,-14.484618090421348,28.75,130.8,93.4,22.6
2026-06-28T11:43:40.397299,34.778389976037936,28.75,130.8,93.4,22.6
2026-06-28T11:43:40.399662,41.928322896430956,28.75,130.8,93.4,22.6
2026-06-28T11:43:40.442389,101.84104949180826,28.75,130.8,93.4,22.6
2026-06-28T11:43:40.444686,89.35517103118248,28.75,130.8,93.4,22.6
2026-06-28T11:43:40.488185,2.89972931673473,28.75,130.8,93.4,22.6
2026-06-28T11:43:40.490692,34.17845064448657,28.75,130.8,93.4,22.6
2026-06-28T11:43:40.534871,9.765702697355259,28.75,130.8,93.4,22.6
2026-06-28T11:43:40.537333,-8.829223931287508,28.75,130.8,93.4,22.6
2026-06-28T11:43:40.589904,-7.572448737965745,28.75,130.8,93.4,22.6
2026-06-28T11:43:40.592675,1.8515296109068426,28.75,130.8,93.4,22.6
2026-06-28T11:43:40.595340,-8.152315087647901,28.75,130.8,93.4,22.6
2026-06-28T11:43:40.632728,-23.34742012575103,28.75,130.8,93.4,22.6
2026-06-28T11:43:40.635412,5.083802938698691,28.75,130.8,93.4,22.6
2026-06-28T11:43:40.682058,3.4115273094462237,28.75,130.8,93.4,22.6
2026-06-28T11:43:40.684482,-4.155897504024684,28.75,130.8,93.4,22.6
2026-06-28T11:43:40.732044,-20.154110188524673,28.75,130.8,93.4,22.6
2026-06-28T11:43:40.734987,-0.16522216324073202,28.75,130.8,93.4,22.6
2026-06-28T11:43:40.779904,-0.8728801045320116,28.75,130.8,93.4,22.6
2026-06-28T11:43:40.784409,19.466599397258225,28.75,130.8,93.4,22.6
2026-06-28T11:43:40.787439,-38.70020978068355,28.75,130.8,93.4,22.6
2026-06-28T11:43:40.829397,-57.68417953551832,28.75,130.8,93.4,22.6
2026-06-28T11:43:40.832159,35.03207516603178,28.75,130.8,93.4,22.6
2026-06-28T11:43:40.877965,-29.908888951575214,28.75,130.8,93.4,22.6
2026-06-28T11:43:40.880859,-18.26663044022188,28.75,130.8,93.4,22.6
2026-06-28T11:43:40.926166,25.34457214505417,28.75,130.8,93.4,22.6
2026-06-28T11:43:40.929360,-1.0486368631851821,28.75,130.8,93.4,22.6
2026-06-28T11:43:40.975394,29.324198885855157,28.75,130.8,93.4,22.6
2026-06-28T11:43:40.978936,8.884364837632447,28.75,130.8,93.4,22.6
2026-06-28T11:43:41.023680,-23.960419520661468,28.75,130.8,93.4,22.6
2026-06-28T11:43:41.026670,31.110552853680694,28.75,130.8,93.4,22.6
2026-06-28T11:43:41.073630,38.77431866733321,28.75,130.8,93.4,22.6
2026-06-28T11:43:41.076477,66.74110578243915,28.75,130.8,93.4,22.6
2026-06-28T11:43:41.079724,54.690057982041665,28.75,130.8,93.4,22.6
2026-06-28T11:43:41.124134,17.10075402010515,28.75,130.8,93.4,22.6
2026-06-28T11:43:41.127688,27.697166418973577,28.75,130.8,93.4,22.6
2026-06-28T11:43:41.172137,0.4610301526984344,28.75,130.8,93.4,22.6
2026-06-28T11:43:41.175802,-4.66602682054495,28.75,130.8,93.4,22.6
2026-06-28T11:43:41.218717,-46.344693046274045,28.75,130.8,93.4,22.6
2026-06-28T11:43:41.221671,-8.271571278484764,28.75,130.8,93.4,22.6
2026-06-28T11:43:41.267602,-3.673818336744882,28.75,130.8,93.4,22.6
2026-06-28T11:43:41.270069,-35.29844715928984,28.75,130.8,93.4,22.6
2026-06-28T11:43:41.316242,-19.72832010077694,28.75,130.8,93.4,22.6
2026-06-28T11:43:41.366458,-18.274479968121398,28.75,130.8,93.4,22.6
2026-06-28T11:43:41.369396,-16.4411948802256,28.75,130.8,93.4,22.6
2026-06-28T11:43:41.372683,-10.45975927363395,28.75,130.8,93.4,22.6
2026-06-28T11:43:41.376588,-52.69400709416318,28.75,130.8,93.4,22.6
2026-06-28T11:43:41.420339,1.264784976976908,28.75,130.8,93.4,22.6
2026-06-28T11:43:41.429852,92.54074968895894,28.75,130.8,93.4,22.6
2026-06-28T11:43:41.466955,-53.33361297355943,28.75,130.8,93.4,22.6
2026-06-28T11:43:41.469684,-31.752539387334153,28.75,130.8,93.4,22.6
2026-06-28T11:43:41.515865,14.617969012221945,28.75,130.8,93.4,22.6
2026-06-28T11:43:41.559798,-46.28916352926356,28.75,130.8,93.4,22.6
2026-06-28T11:43:41.562304,-12.948581143451534,28.75,130.8,93.4,22.6
2026-06-28T11:43:41.564678,-4.103275847147005,28.75,130.8,93.4,22.6
2026-06-28T11:43:41.567347,-35.94418518969052,28.75,130.8,93.4,22.6
2026-06-28T11:43:41.609683,-62.774734532294694,28.75,130.8,93.4,22.6
2026-06-28T11:43:41.612043,4.0457988150383875,28.75,130.8,93.4,22.6
2026-06-28T11:43:41.690151,48.747419448831515,28.75,130.8,93.4,22.6
2026-06-28T11:43:41.692979,45.830001629992495,28.75,130.8,93.4,22.6
2026-06-28T11:43:41.734034,49.71121529718662,28.75,130.8,93.4,22.6
2026-06-28T11:43:41.789906,48.782220495426685,28.75,130.8,93.4,22.6
2026-06-28T11:43:41.792474,12.853038498060787,28.75,130.8,93.4,22.6
2026-06-28T11:43:41.795311,-13.046857982527996,28.75,130.8,93.4,22.6
2026-06-28T11:43:41.803907,-2.1151278020666275,28.75,130.8,93.4,22.6
2026-06-28T11:43:41.828656,-24.6277900417624,28.75,130.8,93.4,22.6
2026-06-28T11:43:41.831442,-19.821923775733328,28.75,130.8,93.4,22.6
2026-06-28T11:43:41.858814,-16.983846193038953,28.75,130.8,93.4,22.6
2026-06-28T11:43:41.861840,9.7209675869756,28.75,130.8,93.4,22.6
2026-06-28T11:43:41.900999,-1.3894446970485372,28.75,130.8,93.4,22.6
2026-06-28T11:43:41.955546,-20.06688992584219,28.75,130.8,93.4,22.6
2026-06-28T11:43:41.959977,35.02473092894011,28.75,130.8,93.4,22.6
2026-06-28T11:43:41.966954,-4.09628723431827,28.75,130.8,93.4,22.6
2026-06-28T11:43:42.022346,-62.37008135035696,28.75,130.8,93.4,22.6
2026-06-28T11:43:42.024869,-82.25711617354222,28.75,130.8,93.4,22.6
2026-06-28T11:43:42.058147,-57.5098026637277,28.75,130.8,93.4,22.6
2026-06-28T11:43:42.060863,-21.976099633087042,28.75,130.8,93.4,22.6
2026-06-28T11:43:42.096068,-5.302032508589239,28.75,130.8,93.4,22.6
2026-06-28T11:43:42.098230,-7.2823617807238605,28.75,130.8,93.4,22.6
2026-06-28T11:43:42.100393,16.846661562958538,28.75,130.8,93.4,22.6
2026-06-28T11:43:42.144991,12.872729841672442,28.75,130.8,93.4,22.6
2026-06-28T11:43:42.147794,-52.42856942522346,28.75,130.8,93.4,22.6
2026-06-28T11:43:42.193668,-7.539123058865227,28.75,130.8,93.4,22.6
2026-06-28T11:43:42.196491,-8.000753672888012,28.75,130.8,93.4,22.6
2026-06-28T11:43:42.242265,-7.720883484865997,28.75,130.8,93.4,22.6
2026-06-28T11:43:42.244978,58.97609986224337,28.75,130.8,93.4,22.6
2026-06-28T11:43:42.290874,124.41875745936741,28.75,130.8,93.4,22.6
2026-06-28T11:43:42.293561,105.34892298706544,28.75,130.8,93.4,22.6
2026-06-28T11:43:42.341119,11.300393406606844,28.75,130.8,93.4,22.6
2026-06-28T11:43:42.344033,28.702974685173135,28.75,130.8,93.4,22.6
2026-06-28T11:43:42.388542,12.924085193827914,28.75,130.8,93.4,22.6
2026-06-28T11:43:42.391450,-2.1901688899714244,28.75,130.8,93.4,22.6
2026-06-28T11:43:42.394639,2.6987405032176195,28.75,130.8,93.4,22.6
2026-06-28T11:43:42.437390,-3.0914979826844915,28.75,130.8,93.4,22.6
2026-06-28T11:43:42.486199,-9.569123589464391,28.75,130.8,93.4,22.6
2026-06-28T11:43:42.488434,-11.367139953145879,28.75,130.8,93.4,22.6
2026-06-28T11:43:42.490690,15.004342779017843,28.75,130.8,93.4,22.6
2026-06-28T11:43:42.541423,0.9512366968372001,28.75,130.8,93.4,22.6
2026-06-28T11:43:42.543950,-51.07329574465419,28.75,130.8,93.4,22.6
2026-06-28T11:43:42.591974,-58.60900534030575,28.75,130.8,93.4,22.6
2026-06-28T11:43:42.603039,-1.2432336512243545,28.75,130.8,93.4,22.6
2026-06-28T11:43:42.638751,-53.85783045471809,28.75,130.8,93.4,22.6
2026-06-28T11:43:42.731153,44.49811796267677,28.75,130.8,93.4,22.6
2026-06-28T11:43:42.733705,74.30360269279069,28.75,130.8,93.4,22.6
2026-06-28T11:43:42.737881,-49.39053607431325,28.75,130.8,93.4,22.6
2026-06-28T11:43:42.742388,-9.038903528937318,28.75,130.8,93.4,22.6
2026-06-28T11:43:42.789329,-31.563899427399825,28.75,130.8,93.4,22.6
2026-06-28T11:43:42.793410,-27.207426273863277,28.75,130.8,93.4,22.6
2026-06-28T11:43:42.796188,-1.9616728798663203,28.75,130.8,93.4,22.6
2026-06-28T11:43:42.799279,-40.95987218395238,28.75,130.8,93.4,22.6
2026-06-28T11:43:42.828967,-60.394974906846684,28.75,130.8,93.4,22.6
2026-06-28T11:43:42.831939,3.4419635093356407,28.75,130.8,93.4,22.6
2026-06-28T11:43:42.877769,27.626255586686995,28.75,130.8,93.4,22.6
2026-06-28T11:43:42.882247,66.40065576817486,28.75,130.8,93.4,22.6
2026-06-28T11:43:42.925380,97.96078019947342,28.75,130.8,93.4,22.6
2026-06-28T11:43:42.930063,68.69566517649766,28.75,130.8,93.4,22.6
2026-06-28T11:43:42.932456,54.80121125495826,28.75,130.8,93.4,22.6
2026-06-28T11:43:42.976947,25.658383267980064,28.75,130.8,93.4,22.6
2026-06-28T11:43:42.979316,23.05825036409636,28.75,130.8,93.4,22.6
2026-06-28T11:43:43.022466,-18.609966261525543,28.75,130.8,93.4,22.6
2026-06-28T11:43:43.024898,-3.4357946329570126,28.75,130.8,93.4,22.6
2026-06-28T11:43:43.070818,18.33585490103421,28.75,130.8,93.4,22.6
2026-06-28T11:43:43.073088,-3.911768004293145,28.75,130.8,93.4,22.6
2026-06-28T11:43:43.119264,-33.06154736745372,28.75,130.8,93.4,22.6
2026-06-28T11:43:43.122462,-48.35744682655955,28.75,130.8,93.4,22.6
2026-06-28T11:43:43.124804,-12.94114802156772,28.75,130.8,93.4,22.6
2026-06-28T11:43:43.175944,-10.253988140056638,28.75,130.8,93.4,22.6
2026-06-28T11:43:43.200483,-21.591668093059347,28.75,130.8,93.4,22.6
2026-06-28T11:43:43.247423,-6.297700188812303,28.75,130.8,93.4,22.6
2026-06-28T11:43:43.251015,-22.872420370633105,28.75,130.8,93.4,22.6
2026-06-28T11:43:43.624960,-70.71593255108081,28.75,130.8,93.4,22.6
2026-06-28T11:43:43.627717,-71.6987780026687,28.75,130.8,93.4,22.6
2026-06-28T11:43:43.630271,-26.212056245302836,28.75,130.8,93.4,22.6
2026-06-28T11:43:43.632447,24.306168938440806,28.75,130.8,93.4,22.6
2026-06-28T11:43:43.634566,5.295101646907476,28.75,130.8,93.4,22.6
2026-06-28T11:43:43.636561,1.0389067088313553,28.75,130.8,93.4,22.6
2026-06-28T11:43:43.638697,10.726241883157009,28.75,130.8,93.4,22.6
2026-06-28T11:43:43.732328,-18.874992952179714,28.75,130.8,93.4,22.6
2026-06-28T11:43:43.734958,-12.847377761859622,28.75,130.8,93.4,22.6
2026-06-28T11:43:43.737338,-24.01807419785361,28.75,130.8,93.4,22.6
2026-06-28T11:43:43.796376,-9.800484888026617,28.75,130.8,93.4,22.6
2026-06-28T11:43:43.798823,16.990207564269927,28.75,130.8,93.4,22.6
2026-06-28T11:43:43.800761,73.02453967526696,28.75,130.8,93.4,22.6
2026-06-28T11:43:43.802609,107.1448553591359,28.75,130.8,93.4,22.6
2026-06-28T11:43:43.804198,50.80440113718564,28.75,130.8,93.4,22.6
2026-06-28T11:43:43.848315,48.12831688334181,28.75,130.8,93.4,22.6
2026-06-28T11:43:43.850677,31.236460841840312,28.75,130.8,93.4,22.6
2026-06-28T11:43:43.852599,-3.902309412943737,28.75,130.8,93.4,22.6
2026-06-28T11:43:43.854640,9.918971264234258,28.75,130.8,93.4,22.6
2026-06-28T11:43:43.856251,13.536225539406438,28.75,130.8,93.4,22.6
2026-06-28T11:43:43.858096,-20.383492807587768,28.75,130.8,93.4,22.6
2026-06-28T11:43:43.859973,2.8198971160360813,28.75,130.8,93.4,22.6
2026-06-28T11:43:43.901272,-6.29242378969706,28.75,130.8,93.4,22.6
2026-06-28T11:43:43.903099,-30.873756555836508,28.75,130.8,93.4,22.6
2026-06-28T11:43:43.904831,-6.43854949724636,28.75,130.8,93.4,22.6
2026-06-28T11:43:43.906584,-13.75080125665012,28.75,130.8,93.4,22.6
2026-06-28T11:43:43.908587,8.2294020320415,28.75,130.8,93.4,22.6
2026-06-28T11:43:43.910416,-10.903381198320536,28.75,130.8,93.4,22.6
2026-06-28T11:43:43.912642,45.12331160461119,28.75,130.8,93.4,22.6
2026-06-28T11:43:43.954375,-65.93298253140796,28.75,130.8,93.4,22.6
2026-06-28T11:43:43.956132,-121.82949860013069,28.75,130.8,93.4,22.6
2026-06-28T11:43:43.958047,22.104151445385057,28.75,130.8,93.4,22.6
2026-06-28T11:43:43.960083,-36.17177974242132,28.75,130.8,93.4,22.6
2026-06-28T11:43:44.025500,-23.44789656450285,28.75,130.8,93.4,22.6
2026-06-28T11:43:44.027807,-18.484418990680105,28.75,130.8,93.4,22.6
2026-06-28T11:43:44.071315,-30.718624950203157,28.75,130.8,93.4,22.6
2026-06-28T11:43:44.073193,-38.96875557196043,28.75,130.8,93.4,22.6
2026-06-28T11:43:44.117933,-30.739671423661065,28.75,130.8,93.4,22.6
2026-06-28T11:43:44.155479,12.5444078736098,28.75,130.8,93.4,22.6
2026-06-28T11:43:44.157240,37.595563327718324,28.75,130.8,93.4,22.6
2026-06-28T11:43:44.158891,65.38065067683308,28.75,130.8,93.4,22.6
2026-06-28T11:43:44.195074,77.54274107541639,28.75,130.8,93.4,22.6
2026-06-28T11:43:44.197497,102.10990762857665,28.75,130.8,93.4,22.6
2026-06-28T11:43:44.199271,48.030744613694296,28.75,130.8,93.4,22.6
2026-06-28T11:43:44.242455,56.31177266958384,28.75,130.8,93.4,22.6
2026-06-28T11:43:44.244225,56.184768721153205,28.75,130.8,93.4,22.6
2026-06-28T11:43:44.298155,9.980378435586346,28.75,130.8,93.4,22.6
2026-06-28T11:43:44.300194,-27.7445472008203,28.75,130.8,93.4,22.6
2026-06-28T11:43:44.351798,-58.17329859712429,28.75,130.8,93.4,22.6
2026-06-28T11:43:44.353622,-38.98597764959044,28.75,130.8,93.4,22.6
2026-06-28T11:43:44.393757,-22.756375377878097,28.75,130.8,93.4,22.6
2026-06-28T11:43:44.395570,-21.2746713370857,28.75,130.8,93.4,22.6
2026-06-28T11:43:44.437155,-28.310086340559824,28.75,130.8,93.4,22.6
2026-06-28T11:43:44.439209,-13.587380859875292,28.75,130.8,93.4,22.6
2026-06-28T11:43:44.441170,-15.801236361172405,28.75,130.8,93.4,22.6
2026-06-28T11:43:44.484511,-41.36580926337694,28.75,130.8,93.4,22.6
2026-06-28T11:43:44.486308,-8.541129993700553,28.75,130.8,93.4,22.6
2026-06-28T11:43:44.541216,-20.71991488282108,28.75,130.8,93.4,22.6
2026-06-28T11:43:44.543181,-52.83629768246595,28.75,130.8,93.4,22.6
2026-06-28T11:43:44.589279,30.489875490041335,28.75,130.8,93.4,22.6
2026-06-28T11:43:44.591203,-16.770411349643666,28.75,130.8,93.4,22.6
2026-06-28T11:43:44.631929,-29.697142909241496,28.75,130.8,93.4,22.6
2026-06-28T11:43:44.633627,6.369619937266428,28.75,130.8,93.4,22.6
2026-06-28T11:43:44.685726,-8.42304834106869,28.75,130.8,93.4,22.6
2026-06-28T11:43:44.687637,16.45002898297981,28.75,130.8,93.4,22.6
2026-06-28T11:43:44.689865,-48.692409640267684,28.75,130.8,93.4,22.6
2026-06-28T11:43:44.733312,3.5303193993952924,28.75,130.8,93.4,22.6
2026-06-28T11:43:44.737235,73.63808508159013,28.75,130.8,93.4,22.6
2026-06-28T11:43:44.779375,91.5669056041165,28.75,130.8,93.4,22.6
2026-06-28T11:43:44.783117,86.78114709971769,28.75,130.8,93.4,22.6
2026-06-28T11:43:44.840345,51.5674738229615,28.75,130.8,93.4,22.6
2026-06-28T11:43:44.878347,57.46320728866895,28.75,130.8,93.4,22.6
2026-06-28T11:43:44.880074,11.650608533619192,28.75,130.8,93.4,22.6
2026-06-28T11:43:44.881739,-12.843331678566553,28.75,130.8,93.4,22.6
2026-06-28T11:43:44.930032,-37.46378934299554,28.75,130.8,93.4,22.6
2026-06-28T11:43:44.935007,-14.821343963010229,28.75,130.8,93.4,22.6
2026-06-28T11:43:44.973515,-63.51177772784977,28.75,130.8,93.4,22.6
2026-06-28T11:43:44.975517,-101.51150154623849,28.75,130.8,93.4,22.6
2026-06-28T11:43:44.978822,-33.3539678576849,28.75,130.8,93.4,22.6
2026-06-28T11:43:45.022579,-115.34337066038145,28.75,130.8,93.4,22.6
2026-06-28T11:43:45.025438,-134.40936836793944,28.75,130.8,93.4,22.6
2026-06-28T11:43:45.072844,-100.61670259433161,28.75,130.8,93.4,22.6
2026-06-28T11:43:45.074909,-119.42919899338864,28.75,130.8,93.4,22.6
2026-06-28T11:43:45.128865,-66.42586087494288,28.75,130.8,93.4,22.6
2026-06-28T11:43:45.130619,-20.792014926917034,28.75,130.8,93.4,22.6
2026-06-28T11:43:45.167968,-20.321168674328725,28.75,130.8,93.4,22.6
2026-06-28T11:43:45.205067,-10.895120472441086,28.75,130.8,93.4,22.6
2026-06-28T11:43:45.246596,24.18717514831382,28.75,130.8,93.4,22.6
2026-06-28T11:43:45.248262,51.206999036639615,28.75,130.8,93.4,22.6
2026-06-28T11:43:45.287081,57.82679046269247,28.75,130.8,93.4,22.6
2026-06-28T11:43:45.289178,81.78395870817364,28.75,130.8,93.4,22.6
2026-06-28T11:43:45.320073,112.19549243245964,28.75,130.8,93.4,22.6
2026-06-28T11:43:45.321874,111.4266741693021,28.75,130.8,93.5,22.6
2026-06-28T11:43:45.323667,106.14876804433148,28.75,130.8,93.5,22.6
2026-06-28T11:43:45.362987,112.38368749118742,28.75,130.8,93.5,22.6
2026-06-28T11:43:45.365528,114.98157332237164,28.75,130.8,93.5,22.6
2026-06-28T11:43:45.417865,111.5452535967319,28.75,130.8,93.5,22.6
2026-06-28T11:43:45.419800,102.87854181134841,28.75,130.8,93.5,22.6
2026-06-28T11:43:45.476338,100.59582674717494,28.75,130.8,93.5,22.6
2026-06-28T11:43:45.478224,102.38670551296036,28.75,130.8,93.5,22.6
2026-06-28T11:43:45.509272,79.84889469376787,28.75,130.8,93.5,22.6
2026-06-28T11:43:45.511404,62.92673314202498,28.75,130.8,93.5,22.6
2026-06-28T11:43:45.513089,77.13503448294924,28.75,130.8,93.5,22.6
2026-06-28T11:43:45.562417,105.1832908322025,28.75,130.8,93.5,22.6
2026-06-28T11:43:45.564092,936.6925048262048,28.75,130.8,93.5,22.6
2026-06-28T11:43:45.616655,1314.1032524407715,28.75,130.8,93.5,22.6
2026-06-28T11:43:45.655295,521.1287877197068,28.75,130.8,93.5,22.6
2026-06-28T11:43:45.705172,326.8454502455677,28.75,130.8,93.5,22.6
2026-06-28T11:43:45.707072,-4.5601161845285105,28.75,130.8,93.5,22.6
2026-06-28T11:43:45.708836,-375.6999794972662,28.75,130.8,93.5,22.6
2026-06-28T11:43:45.710671,-372.30280354829506,28.75,123.7,93.6,22.5
2026-06-28T11:43:45.761356,-541.2057516671946,28.75,123.7,93.6,22.4
2026-06-28T11:43:45.763177,-674.1218799712684,28.75,123.7,93.6,22.3
2026-06-28T11:43:45.803822,-668.757283431902,28.75,123.7,93.6,22.3
2026-06-28T11:43:45.849398,-610.3076891357782,28.75,123.7,93.7,22.2
2026-06-28T11:43:45.851145,-638.0368659356656,28.75,123.7,93.7,22.1
2026-06-28T11:43:45.852836,-524.8264010522823,28.75,123.7,93.7,22.1
2026-06-28T11:43:45.854937,-493.38639214663857,28.75,123.7,93.7,22.0
2026-06-28T11:43:45.906579,-508.3915125158883,28.75,123.7,93.7,22.0
2026-06-28T11:43:45.908386,-460.3310437925284,28.75,123.7,93.7,21.9
2026-06-28T11:43:45.960073,-418.15850415846126,28.75,123.7,93.7,21.9
2026-06-28T11:43:45.962202,-269.74972762324813,28.75,123.7,93.8,21.9
2026-06-28T11:43:46.000903,-214.97222414557655,28.75,123.7,93.8,21.8
2026-06-28T11:43:46.002692,-188.76896183414587,28.75,123.7,93.8,21.8
2026-06-28T11:43:46.044572,-149.0848373796852,28.75,123.7,93.9,21.8
2026-06-28T11:43:46.046629,-129.42774766639383,28.75,123.7,93.9,21.8
2026-06-28T11:43:46.107409,-76.9923528836957,28.75,123.7,93.9,21.7
2026-06-28T11:43:46.109087,-14.593074885448544,28.75,123.7,93.9,21.7
2026-06-28T11:43:46.142311,50.30978936974195,28.75,123.7,93.9,21.7
2026-06-28T11:43:46.144910,51.84267278343995,28.75,123.7,93.9,21.7
2026-06-28T11:43:46.146866,176.24265117760314,28.75,123.7,93.9,21.7
2026-06-28T11:43:46.194353,293.67723860845683,28.75,123.7,94.0,21.7
2026-06-28T11:43:46.196987,232.85490939414836,28.75,123.7,94.0,21.6
2026-06-28T11:43:46.238763,287.0899830637848,28.75,123.7,94.0,21.6
2026-06-28T11:43:46.240548,407.30773688456685,28.75,123.7,94.0,21.6
2026-06-28T11:43:46.288310,355.99527784993825,28.75,123.7,94.0,21.6
2026-06-28T11:43:46.290167,273.6622050710552,28.75,123.7,94.0,21.6
2026-06-28T11:43:46.341224,309.0807672657383,28.75,123.7,94.0,21.6
2026-06-28T11:43:46.343615,279.3607018403376,28.75,123.7,94.0,21.6
2026-06-28T11:43:46.385675,271.07024789533205,28.75,123.7,94.1,21.6
2026-06-28T11:43:46.440153,288.83223243262677,28.75,123.7,94.1,21.6
2026-06-28T11:43:46.441881,295.78519643212326,28.75,123.7,94.1,21.6
2026-06-28T11:43:46.443378,266.5108869675075,28.75,123.7,94.1,21.6
2026-06-28T11:43:46.444816,125.9948428376969,28.75,123.7,94.1,21.6
2026-06-28T11:43:46.493254,-6.555670767691936,28.75,123.7,94.1,21.6
2026-06-28T11:43:46.494866,-7.2080164274738365,28.75,123.7,94.1,21.6
2026-06-28T11:43:46.533447,119.9321828093596,28.75,123.7,94.1,21.6
2026-06-28T11:43:46.535158,101.88741095694557,28.75,123.7,94.1,21.6
2026-06-28T11:43:46.584739,114.68912195949177,28.75,123.7,94.1,21.6
2026-06-28T11:43:46.586638,125.46095178329445,28.75,123.7,94.2,21.6
2026-06-28T11:43:46.649777,136.07782601577503,28.75,123.7,94.2,21.6
2026-06-28T11:43:46.651862,50.95681846577159,28.75,123.7,94.2,21.6
2026-06-28T11:43:46.684048,48.05337266204096,28.75,123.7,94.2,21.6
2026-06-28T11:43:46.685970,145.8843610379978,28.75,123.7,94.2,21.6
2026-06-28T11:43:46.687540,11.341891287702552,28.75,123.7,94.2,21.6
2026-06-28T11:43:46.737018,7.694593539143831,28.75,123.7,94.2,21.6
2026-06-28T11:43:46.738783,6.408309826194262,28.75,105.4,94.1,21.3
2026-06-28T11:43:46.781900,51.29699420571043,28.75,105.4,94.1,21.0
2026-06-28T11:43:46.783425,-1.236575844725722,28.75,105.4,94.1,20.8
2026-06-28T11:43:46.838590,-67.01541178985406,28.75,105.4,94.1,20.6
2026-06-28T11:43:46.840331,-18.0582042225319,28.75,105.4,94.1,20.4
2026-06-28T11:43:46.876024,-139.78487932673852,28.75,105.4,94.1,20.3
2026-06-28T11:43:46.877713,-196.99293425410596,28.75,105.4,94.1,20.1
2026-06-28T11:43:46.925932,-80.78703010569694,28.75,105.4,94.1,20.0
2026-06-28T11:43:46.927671,-70.10727615816768,28.75,105.4,94.0,19.9
2026-06-28T11:43:46.989113,-209.40502855378173,28.75,105.4,94.0,19.8
2026-06-28T11:43:46.991032,-45.28010454167351,28.75,105.4,94.0,19.7
2026-06-28T11:43:46.992846,13.838276946841304,28.75,105.4,94.0,19.6
2026-06-28T11:43:47.028920,-75.23751602480017,28.75,105.4,94.0,19.5
2026-06-28T11:43:47.030554,-14.783462629296636,28.75,105.4,94.0,19.4
2026-06-28T11:43:47.068052,-44.96289358150503,28.75,105.4,94.0,19.4
2026-06-28T11:43:47.094548,-35.611021430306984,28.75,105.4,94.0,19.3
2026-06-28T11:43:47.125823,-48.3908737400495,28.75,105.4,94.0,19.3
2026-06-28T11:43:47.127275,-33.611995390022685,28.75,105.4,94.0,19.2
2026-06-28T11:43:47.166816,13.843932683365901,28.75,105.4,94.0,19.2
2026-06-28T11:43:47.168259,15.090406057921017,28.75,105.4,94.0,19.1
2026-06-28T11:43:47.215646,29.798229944439402,28.75,105.4,94.0,19.1
2026-06-28T11:43:47.217580,-19.823843235562194,28.75,105.4,94.0,19.1
2026-06-28T11:43:47.219088,-78.25492350785363,28.75,105.4,94.0,19.1
2026-06-28T11:43:47.272562,-103.46489828776319,28.75,105.4,94.0,19.0
2026-06-28T11:43:47.274198,-81.55870368311095,28.75,105.4,94.0,19.0
2026-06-28T11:43:47.312057,-52.87750179196184,28.75,105.4,94.0,19.0
2026-06-28T11:43:47.338752,-75.95952881607478,28.75,105.4,94.0,19.0
2026-06-28T11:43:47.370094,-69.83971740774123,28.75,105.4,94.0,19.0
2026-06-28T11:43:47.371598,-67.75642436311261,28.75,105.4,94.0,18.9
2026-06-28T11:43:47.411192,-85.07793208489366,28.75,105.4,94.1,18.9
2026-06-28T11:43:47.412684,-90.20239754131134,28.75,105.4,94.1,18.9
2026-06-28T11:43:47.469029,-100.49161944889156,28.75,105.4,94.1,18.9
2026-06-28T11:43:47.470850,-70.53807137513148,28.75,105.4,94.1,18.9
2026-06-28T11:43:47.472405,-116.93463934376472,28.75,106.0,94.1,18.9
2026-06-28T11:43:47.512038,-28.86919306403957,28.75,106.0,94.1,18.9
2026-06-28T11:43:47.557942,81.61039568419675,28.75,106.0,94.1,18.9
2026-06-28T11:43:47.559583,-46.12700220274233,28.75,106.0,94.2,18.9
2026-06-28T11:43:47.561145,-27.186304270401514,28.75,106.0,94.2,18.9
2026-06-28T11:43:47.633282,-24.791687841019193,28.75,106.0,94.2,18.9
2026-06-28T11:43:47.635298,-53.564786227539365,28.75,106.0,94.2,18.9
2026-06-28T11:43:47.662406,-41.77687767159094,28.75,106.0,94.2,18.9
2026-06-28T11:43:47.663834,-70.74729434892683,28.75,106.0,94.2,18.9
2026-06-28T11:43:47.713675,-46.744150027648175,28.75,106.0,94.2,18.9
2026-06-28T11:43:47.715248,-29.024065803898747,28.75,106.0,94.2,18.9
2026-06-28T11:43:47.716598,8.804875275371247,28.75,106.0,94.3,18.9
2026-06-28T11:43:47.750884,69.11770503667199,28.75,106.0,94.3,18.9
2026-06-28T11:43:47.753330,101.42695628705273,28.75,106.0,94.3,18.9
2026-06-28T11:43:47.809214,106.41535871091475,28.75,106.0,94.2,18.9
2026-06-28T11:43:47.811567,76.15041240033239,28.75,106.0,94.2,18.9
2026-06-28T11:43:47.857960,29.779953002838965,28.75,106.0,94.2,18.9
2026-06-28T11:43:47.859760,10.532602319112776,28.75,106.0,94.2,18.9
2026-06-28T11:43:47.898383,-9.701640317610945,28.75,106.0,94.2,18.9
2026-06-28T11:43:47.900014,-17.346822880815868,28.75,106.0,94.2,18.9
2026-06-28T11:43:47.947279,-27.444882445408393,28.75,106.0,94.2,18.9
2026-06-28T11:43:47.948817,-4.731806994651645,28.75,106.0,94.2,18.9
2026-06-28T11:43:47.950214,7.803959761180492,28.75,106.0,94.2,18.9
2026-06-28T11:43:48.003834,-14.751275878885718,28.75,106.0,94.2,18.9
2026-06-28T11:43:48.005670,8.656573367064173,28.75,106.0,94.2,18.9
2026-06-28T11:43:48.044383,-11.978905693365503,28.75,106.0,94.2,18.9
2026-06-28T11:43:48.046083,-69.93478003494756,28.75,106.0,94.2,18.9
2026-06-28T11:43:48.092559,26.283627380472815,28.75,106.0,94.2,18.9
2026-06-28T11:43:48.097179,97.532865339564,28.75,106.0,94.2,18.9
2026-06-28T11:43:48.150228,8.823935381815936,28.75,106.0,94.2,18.9
2026-06-28T11:43:48.151736,17.873473479282673,28.75,106.0,94.2,18.9
2026-06-28T11:43:48.205535,13.150111376771854,28.75,106.0,94.2,18.9
2026-06-28T11:43:48.208385,-0.69376069462826,28.75,106.0,94.2,18.9
2026-06-28T11:43:48.210013,3.603532503315775,28.75,106.0,94.2,18.9
2026-06-28T11:43:48.239126,-47.36869177502274,28.75,106.0,94.2,18.9
2026-06-28T11:43:48.241423,2.6953997631806015,28.75,106.0,94.2,18.9
2026-06-28T11:43:48.292329,68.57008296489524,28.75,106.0,94.2,18.9
2026-06-28T11:43:48.347199,71.39410696276678,28.75,106.0,94.2,18.9
2026-06-28T11:43:48.349106,104.64202324797967,28.75,106.0,94.2,18.9
2026-06-28T11:43:48.350673,142.67246708922892,28.75,106.0,94.1,18.9
2026-06-28T11:43:48.384781,70.96800433122979,28.75,106.0,94.1,18.9
2026-06-28T11:43:48.388169,40.823780522144965,28.75,106.0,94.1,18.9
2026-06-28T11:43:48.436972,50.2263166168171,28.75,106.0,94.1,18.9
2026-06-28T11:43:48.438606,-7.67677772368021,28.75,106.0,94.1,18.9
2026-06-28T11:43:48.439911,-3.72725273542466,28.75,106.0,94.1,18.9
2026-06-28T11:43:48.490664,-4.190825302050831,28.75,106.0,94.1,18.9
2026-06-28T11:43:48.492267,8.838820973682779,28.75,106.0,94.1,18.9
2026-06-28T11:43:48.531159,27.095782431424066,28.75,106.0,94.1,18.9
2026-06-28T11:43:48.532842,-0.9880037857874542,28.75,106.0,94.1,18.9
2026-06-28T11:43:48.580178,26.33018410560636,28.75,106.0,94.1,18.9
2026-06-28T11:43:48.582448,35.297988942499494,28.75,106.0,94.1,18.9
2026-06-28T11:43:48.636289,-60.26128330092003,28.75,106.0,94.1,18.9
2026-06-28T11:43:48.637986,37.437924441384965,28.75,106.0,94.1,18.9
2026-06-28T11:43:48.678372,87.03515989802342,28.75,106.0,94.1,18.9
2026-06-28T11:43:48.726226,-75.34254467046998,28.75,106.0,94.1,18.9
2026-06-28T11:43:48.727967,4.353522783717246,28.75,106.0,94.1,18.9
2026-06-28T11:43:48.729485,28.89699142261663,28.75,106.0,94.1,18.9
2026-06-28T11:43:48.733165,16.699361956023523,28.75,106.0,94.0,18.9
2026-06-28T11:43:48.779978,61.13251698096267,28.75,106.0,94.0,18.9
2026-06-28T11:43:48.781583,0.3997069706790106,28.75,106.0,94.0,18.9
2026-06-28T11:43:48.839737,-29.937880375803232,28.75,106.0,94.0,18.9
2026-06-28T11:43:48.841779,-28.57962667733611,28.75,106.0,94.0,18.9
2026-06-28T11:43:48.874076,-11.438172542063588,28.75,106.0,94.0,18.9
2026-06-28T11:43:48.876262,10.337150465630184,28.75,106.0,94.0,18.9
2026-06-28T11:43:48.925991,67.62186882501388,28.75,106.0,94.0,18.9
2026-06-28T11:43:48.927783,60.00856834587141,28.75,106.0,94.0,18.9
2026-06-28T11:43:48.929249,-6.403543082717526,28.75,106.0,94.0,18.9
2026-06-28T11:43:48.981791,-9.95924671841427,28.75,106.0,94.0,18.9
2026-06-28T11:43:48.983321,-8.086251554036284,28.75,106.0,94.0,18.9
2026-06-28T11:43:49.018938,-51.83547205880934,28.75,106.0,94.0,18.9
2026-06-28T11:43:49.070348,-56.91341600331427,28.75,106.0,94.0,18.9
2026-06-28T11:43:49.071920,-30.462213773164105,28.75,106.0,94.0,18.9
2026-06-28T11:43:49.073424,-49.57173236599646,28.75,106.0,94.0,18.9
2026-06-28T11:43:49.125515,-49.333172364208686,28.75,106.0,94.0,18.9
2026-06-28T11:43:49.127135,-31.436151221650224,28.75,106.0,94.0,18.9
2026-06-28T11:43:49.165785,-3.306132689054346,28.75,106.0,94.0,18.9
2026-06-28T11:43:49.167326,-15.947889021878439,28.75,106.0,94.0,18.9
2026-06-28T11:43:49.168812,-5.959830393887788,28.75,106.0,94.0,18.9
2026-06-28T11:43:49.216841,21.772537808004966,28.75,106.0,94.0,18.9
2026-06-28T11:43:49.218622,7.075850849400878,28.75,106.0,93.9,18.9
2026-06-28T11:43:49.268102,-15.830135972267392,28.75,106.0,93.9,18.9
2026-06-28T11:43:49.269708,-53.20637695207143,28.75,106.0,93.9,18.9
2026-06-28T11:43:49.323687,-6.013577446802983,28.75,106.0,93.9,18.9
2026-06-28T11:43:49.325235,-15.763251314452955,28.75,106.0,93.9,18.9
2026-06-28T11:43:49.360702,-40.340918384877,28.75,106.0,93.9,18.9
2026-06-28T11:43:49.362607,-30.106528642780344,28.75,106.0,93.9,18.9
2026-06-28T11:43:49.414390,-27.436401124653408,28.75,106.0,93.9,18.9
2026-06-28T11:43:49.416376,-23.522990388321322,28.75,106.0,93.9,18.9
2026-06-28T11:43:49.418017,3.81386309323776,28.75,106.0,93.9,18.9
2026-06-28T11:43:49.467037,89.47419159389584,28.75,106.0,93.9,18.9
2026-06-28T11:43:49.468719,65.67927678664316,28.75,106.0,93.9,18.9
2026-06-28T11:43:49.506915,43.16766493368602,28.75,106.0,93.9,18.9
2026-06-28T11:43:49.508348,26.34924598622475,28.75,106.0,93.9,18.9
2026-06-28T11:43:49.557832,7.248806054076667,28.75,106.0,93.9,18.9
2026-06-28T11:43:49.559488,2.192496646163441,28.75,106.0,93.9,18.9
2026-06-28T11:43:49.612890,-21.67318587802228,28.75,106.0,93.9,18.9
2026-06-28T11:43:49.614641,-27.282343817069297,28.75,106.0,93.9,18.9
2026-06-28T11:43:49.652206,-14.271240096802993,28.88,106.0,93.9,18.9
2026-06-28T11:43:49.654405,-29.637194485395554,28.88,106.0,93.9,18.9
2026-06-28T11:43:49.704483,-90.51138147437564,28.88,106.0,93.9,18.9
2026-06-28T11:43:49.706171,-23.930209563303414,28.88,106.0,93.8,18.9
2026-06-28T11:43:49.756378,-12.173496305789293,28.88,106.0,93.8,18.9
2026-06-28T11:43:49.808156,-86.46079953515152,28.88,106.0,93.8,18.9
2026-06-28T11:43:49.809703,-47.51320929733727,28.88,106.0,93.8,18.9
2026-06-28T11:43:49.811070,26.917651413165053,28.88,106.0,93.8,18.9
2026-06-28T11:43:49.812330,-16.562823197201006,28.88,106.0,93.8,18.9
2026-06-28T11:43:49.856808,-21.33144062287475,28.88,106.0,93.8,18.9
2026-06-28T11:43:49.858473,41.87481951774939,28.88,106.0,93.8,18.9
2026-06-28T11:43:49.896626,4.886159268966448,28.88,106.0,93.8,18.9
2026-06-28T11:43:49.898253,0.18897985302633558,28.88,106.0,93.8,18.9
2026-06-28T11:43:49.944306,-31.87573259735803,28.88,106.0,93.8,18.9
2026-06-28T11:43:49.967069,-43.329145872704444,28.88,106.0,93.8,18.9
2026-06-28T11:43:50.000358,-35.00138992018023,28.88,106.0,93.8,18.9
2026-06-28T11:43:50.002025,0.38228239950883514,28.88,106.0,93.8,18.9
2026-06-28T11:43:50.042171,94.82131379434276,28.88,106.0,93.8,18.9
2026-06-28T11:43:50.043514,77.96136692721939,28.88,106.0,93.8,18.9
2026-06-28T11:43:50.090668,66.29954175528164,28.88,106.0,93.8,18.9
2026-06-28T11:43:50.092793,42.96343429053101,28.88,106.0,93.8,18.9
2026-06-28T11:43:50.094777,8.912577855840524,28.88,106.0,93.8,18.9
2026-06-28T11:43:50.140596,-3.048823204952683,28.88,106.0,93.8,18.9
2026-06-28T11:43:50.142276,-8.434581818787418,28.88,106.0,93.8,18.9
2026-06-28T11:43:50.194640,5.377708846357805,28.88,106.0,93.8,18.9
2026-06-28T11:43:50.198635,-11.059841126275135,28.88,106.0,93.8,18.9
2026-06-28T11:43:50.245525,10.798065185680109,28.88,106.0,93.8,18.9
2026-06-28T11:43:50.247088,-28.714427812863192,28.88,106.0,93.8,18.9
2026-06-28T11:43:50.286539,-21.79595061775838,28.88,106.0,93.8,18.9
2026-06-28T11:43:50.288271,10.650371128339394,28.88,106.0,93.8,18.9
2026-06-28T11:43:50.344508,-91.46207581218894,28.88,106.0,93.8,18.9
2026-06-28T11:43:50.383607,60.0325576311292,28.88,106.0,93.7,18.9
2026-06-28T11:43:50.386055,113.70498122366146,28.88,106.0,93.7,18.9
2026-06-28T11:43:50.387474,-30.455563096575556,28.88,106.0,93.7,18.9
2026-06-28T11:43:50.434922,37.37683790224459,28.88,106.0,93.7,18.9
2026-06-28T11:43:50.436386,4.146901887465987,28.88,106.0,93.7,18.9
2026-06-28T11:43:50.491358,-47.30688057878666,28.88,106.0,93.7,18.9
2026-06-28T11:43:50.493010,-30.642933684215016,28.88,106.0,93.7,18.9
2026-06-28T11:43:50.494513,-7.490842477824561,28.88,106.0,93.7,18.9
2026-06-28T11:43:50.530798,-12.823353446586596,28.88,106.0,93.7,18.9
2026-06-28T11:43:50.533122,-16.902162664941276,28.88,106.0,93.7,18.9
2026-06-28T11:43:50.588376,59.00851582089788,28.88,106.0,93.7,18.9
2026-06-28T11:43:50.590192,87.10586719904538,28.88,106.0,93.7,18.9
2026-06-28T11:43:50.627191,70.31632904496298,28.88,106.0,93.7,18.9
2026-06-28T11:43:50.629500,35.21611431708989,28.88,106.0,93.7,18.9
2026-06-28T11:43:50.679445,20.756821104580787,28.88,106.0,93.7,18.9
2026-06-28T11:43:50.681232,3.091351036924017,28.88,106.0,93.7,18.9
2026-06-28T11:43:50.733536,-16.018841535614456,28.88,106.0,93.7,18.9
2026-06-28T11:43:50.736068,-25.58421648443826,28.88,106.0,93.7,18.9
2026-06-28T11:43:50.778555,-24.100426446430042,28.88,106.0,93.7,18.9
2026-06-28T11:43:50.780180,-23.301617529144366,28.88,106.0,93.7,18.9
2026-06-28T11:43:50.822708,-25.609944486873662,28.88,106.0,93.7,18.9
2026-06-28T11:43:50.824309,-26.639921538449762,28.88,106.0,93.7,18.9
2026-06-28T11:43:50.825816,-37.76389158925266,28.88,106.0,93.7,18.9
2026-06-28T11:43:50.877493,-2.814226037758555,28.88,106.0,93.7,18.9
2026-06-28T11:43:50.879147,-59.16139556420754,28.88,106.0,93.7,18.9
2026-06-28T11:43:50.920141,-0.033264775917711376,28.88,106.0,93.7,18.9
2026-06-28T11:43:50.921838,-6.743823997868811,28.88,106.0,93.7,18.9
2026-06-28T11:43:50.972534,-103.12080898240605,28.88,106.0,93.7,18.9
2026-06-28T11:43:50.974247,41.887189578202474,28.88,106.0,93.7,18.9
2026-06-28T11:43:51.022711,46.50567288390578,28.88,106.0,93.7,18.9
2026-06-28T11:43:51.024386,23.86122944158214,28.88,106.0,93.7,18.9
2026-06-28T11:43:51.077797,-9.281246129829412,28.88,106.0,93.7,18.9
2026-06-28T11:43:51.115672,-26.42061666106056,28.88,106.0,93.7,18.9
2026-06-28T11:43:51.117787,-34.69155278793943,28.88,106.0,93.7,18.9
2026-06-28T11:43:51.119387,-49.60667255224142,28.88,106.0,93.7,18.9
2026-06-28T11:43:51.167678,34.83658548388358,28.88,106.0,93.7,18.9
2026-06-28T11:43:51.169320,48.75042608027307,28.88,106.0,93.7,18.9
2026-06-28T11:43:51.223223,80.78084406036919,28.88,106.0,93.7,18.9
2026-06-28T11:43:51.224971,51.30118888530973,28.88,106.0,93.7,18.9
2026-06-28T11:43:51.226607,52.03200771588465,28.88,106.0,93.7,18.9
2026-06-28T11:43:51.261713,16.57640142369877,28.88,106.0,93.7,18.9
2026-06-28T11:43:51.311854,-34.131990018071306,28.88,106.0,93.7,18.9
2026-06-28T11:43:51.313648,30.086007990423717,28.88,106.0,93.7,18.9
2026-06-28T11:43:51.315197,-18.196563844198394,28.88,106.0,93.7,18.9
2026-06-28T11:43:51.368161,-23.398058453675404,28.88,106.0,93.7,18.9
2026-06-28T11:43:51.370219,-14.961940600942617,28.88,106.0,93.7,18.9
2026-06-28T11:43:51.407559,-9.229703479201877,28.88,106.0,93.7,18.9
2026-06-28T11:43:51.409281,-45.096512536003814,28.88,106.0,93.7,18.9
2026-06-28T11:43:51.456845,-62.46319497758026,28.88,106.0,93.7,18.9
2026-06-28T11:43:51.481009,13.046932616676116,28.88,106.0,93.7,18.9
2026-06-28T11:43:51.512124,-89.70198830221364,28.88,106.0,93.7,18.9
2026-06-28T11:43:51.513622,7.56183161202625,28.88,106.0,93.7,18.9
2026-06-28T11:43:51.587476,71.12930921727418,28.88,106.0,93.7,18.9
2026-06-28T11:43:51.589506,-44.8049588480711,28.88,106.0,93.7,18.9
2026-06-28T11:43:51.628153,-11.747987722808865,28.88,106.0,93.7,18.9
2026-06-28T11:43:51.630218,-30.944334521959856,28.88,106.0,93.7,18.9
2026-06-28T11:43:51.632038,6.9053993948308126,28.88,106.0,93.7,18.9
2026-06-28T11:43:51.657202,5.847540401680131,28.94,106.0,93.7,18.9
2026-06-28T11:43:51.658872,-49.45708813752251,28.94,106.0,93.7,18.9
2026-06-28T11:43:51.710077,-52.53243249006697,28.94,106.0,93.7,18.9
2026-06-28T11:43:51.711677,-10.368623707555365,28.94,106.0,93.7,18.9
2026-06-28T11:43:51.748664,22.606726732705916,28.94,106.0,93.7,18.9
2026-06-28T11:43:51.750527,54.25025618142796,28.94,106.0,93.7,18.9
2026-06-28T11:43:51.797702,105.75670227307309,28.94,106.0,93.7,18.9
2026-06-28T11:43:51.799523,56.7568043765684,28.94,106.0,93.7,18.9
2026-06-28T11:43:51.859785,36.83915351083839,28.94,106.0,93.7,18.9
2026-06-28T11:43:51.861712,42.38500982213452,28.94,106.0,93.7,18.9
2026-06-28T11:43:51.863321,16.369199574638984,28.94,106.0,93.7,18.9
2026-06-28T11:43:51.894965,-24.705890632533606,28.94,106.0,93.7,18.9
2026-06-28T11:43:51.896496,-11.288175164932209,28.94,106.0,93.7,18.9
2026-06-28T11:43:51.944208,14.05757144037658,28.94,106.0,93.7,18.9
2026-06-28T11:43:51.964870,10.286319572707177,28.94,106.0,93.7,18.9
2026-06-28T11:43:51.999524,17.453772079414478,28.94,106.0,93.7,18.9
2026-06-28T11:43:52.000932,-8.905135828459851,28.94,106.0,93.7,18.9
2026-06-28T11:43:52.048110,-13.433077852770905,28.94,106.0,93.7,18.9
2026-06-28T11:43:52.049861,-8.457422989312356,28.94,106.0,93.7,18.9
2026-06-28T11:43:52.099500,-31.107334266905845,28.94,106.0,93.7,18.9
2026-06-28T11:43:52.100986,-99.32197672907583,28.94,106.0,93.7,18.9
2026-06-28T11:43:52.139242,-30.062971939145125,28.94,106.0,93.7,18.9
2026-06-28T11:43:52.140680,22.67418759567344,28.94,106.0,93.7,18.9
2026-06-28T11:43:52.141983,-34.16082552358341,28.94,106.0,93.7,18.9
2026-06-28T11:43:52.188039,30.93222599077455,28.94,106.0,93.7,18.9
2026-06-28T11:43:52.244943,14.473181543455,28.94,106.0,93.7,18.9
2026-06-28T11:43:52.246677,-15.584779651088878,28.94,106.0,93.7,18.9
2026-06-28T11:43:52.248153,0.8178531348802931,28.94,106.0,93.7,18.9
2026-06-28T11:43:52.290005,-23.111207740183907,28.94,106.0,93.7,18.9
2026-06-28T11:43:52.291588,-50.641975901918286,28.94,106.0,93.7,18.9
2026-06-28T11:43:52.334443,-41.99366709732184,28.94,106.0,93.7,18.9
2026-06-28T11:43:52.354851,8.774892846295096,28.94,106.0,93.7,18.9
2026-06-28T11:43:52.392747,67.88162291560398,28.94,106.0,93.7,18.9
2026-06-28T11:43:52.394446,94.02597128400201,28.94,106.0,93.7,18.9
2026-06-28T11:43:52.395609,70.26927408036812,28.94,106.0,93.7,18.9
2026-06-28T11:43:52.434589,56.786240711353,28.94,106.0,93.7,18.9
2026-06-28T11:43:52.436275,23.79677996867975,28.94,106.0,93.7,18.9
2026-06-28T11:43:52.489250,11.137506728098614,28.94,106.0,93.7,18.9
2026-06-28T11:43:52.490716,21.14096429581942,28.94,106.0,93.7,18.9
2026-06-28T11:43:52.533983,15.858598432897313,28.94,106.0,93.7,18.9
2026-06-28T11:43:52.535585,-41.67260020328991,28.94,106.0,93.7,18.9
2026-06-28T11:43:52.578355,-47.230808571355965,28.94,106.0,93.7,18.9
2026-06-28T11:43:52.625962,-13.15151085196075,28.94,106.0,93.7,18.9
2026-06-28T11:43:52.627513,-48.968055480881326,28.94,106.0,93.7,18.9
2026-06-28T11:43:52.629016,-46.875196099208665,28.94,106.0,93.7,18.9
2026-06-28T11:43:52.630549,-9.953164583912713,28.94,106.0,93.7,18.9
2026-06-28T11:43:52.676836,-10.704279510954912,28.94,106.0,93.7,18.9
2026-06-28T11:43:52.678461,-117.50549820256089,28.94,106.0,93.7,18.9
2026-06-28T11:43:52.723830,-33.06415170300137,28.94,106.0,93.7,18.9
2026-06-28T11:43:52.726160,59.51409812296333,28.94,106.0,93.7,18.9
2026-06-28T11:43:52.772271,-36.762885790750474,28.94,106.0,93.7,18.9
2026-06-28T11:43:52.773983,8.517479860973324,28.94,106.0,93.7,18.9
2026-06-28T11:43:52.823093,26.989488333630653,28.94,106.0,93.7,18.9
2026-06-28T11:43:52.824708,-10.233458918946429,28.94,106.0,93.7,18.9
2026-06-28T11:43:52.870454,-6.8335097902675965,28.94,106.0,93.7,18.9
2026-06-28T11:43:52.872653,-15.493273994731759,28.94,106.0,93.7,18.9
2026-06-28T11:43:52.923007,-42.47433423937898,28.94,106.0,93.7,18.9
2026-06-28T11:43:52.924860,13.840597106031755,28.94,106.0,93.8,18.9
2026-06-28T11:43:52.926397,51.39022819532282,28.94,106.0,93.8,18.9
2026-06-28T11:43:52.977523,78.35721566001695,28.94,106.0,93.8,18.9
2026-06-28T11:43:53.017376,115.66514089149312,28.94,106.0,93.8,18.9
2026-06-28T11:43:53.018949,92.84924169030569,28.94,106.0,93.8,18.9
2026-06-28T11:43:53.020358,45.639997555104074,28.94,106.0,93.8,18.9
2026-06-28T11:43:53.067447,15.778093281216233,28.94,106.0,93.8,18.9
2026-06-28T11:43:53.069214,5.990862026329566,28.94,106.0,93.8,18.9
2026-06-28T11:43:53.122876,-54.04629799510898,28.94,106.0,93.8,18.9
2026-06-28T11:43:53.124436,-26.274993372464564,28.94,106.0,93.8,18.9
2026-06-28T11:43:53.125836,-14.679656396242587,28.94,106.0,93.8,18.9
2026-06-28T11:43:53.163430,-15.124624821115443,28.94,106.0,93.8,18.9
2026-06-28T11:43:53.165654,-13.018172176080704,28.94,106.0,93.8,18.9
2026-06-28T11:43:53.212270,4.161471767929939,28.94,106.0,93.8,18.9
2026-06-28T11:43:53.214384,0.4507640633586787,28.94,106.0,93.8,18.9
2026-06-28T11:43:53.259900,-60.530575931720264,28.94,106.0,93.8,18.9
2026-06-28T11:43:53.261826,-79.73907775725657,28.94,106.0,93.8,18.9
2026-06-28T11:43:53.311716,-65.88803184202165,28.94,106.0,93.8,18.9
2026-06-28T11:43:53.313538,15.52459044140908,28.94,106.0,93.8,18.9
2026-06-28T11:43:53.366527,-69.91234683071352,28.94,106.0,93.8,18.9
2026-06-28T11:43:53.367873,-10.937476193432769,28.94,106.0,93.8,18.9
2026-06-28T11:43:53.369124,102.44529618576016,28.94,106.0,93.8,18.9
2026-06-28T11:43:53.410738,2.5574756517186676,28.94,106.0,93.8,18.9
2026-06-28T11:43:53.412351,-61.191489390701115,28.94,106.0,93.8,18.9
2026-06-28T11:43:53.455404,-62.73958465835222,28.94,106.0,93.8,18.9
2026-06-28T11:43:53.477773,33.308109128662814,28.94,106.0,93.8,18.9
2026-06-28T11:43:53.508420,32.983780696028205,28.94,106.0,93.8,18.9
2026-06-28T11:43:53.510125,-2.8494216780147994,28.94,106.0,93.8,18.9
2026-06-28T11:43:53.556894,-8.057236315539637,28.94,106.0,93.8,18.9
2026-06-28T11:43:53.609769,-12.205069709877458,28.94,106.0,93.8,18.9
2026-06-28T11:43:53.611355,-5.279846993967663,28.94,106.0,93.8,18.9
2026-06-28T11:43:53.612738,102.78995766273114,28.94,106.0,93.8,18.9
2026-06-28T11:43:53.614069,121.21419484020488,28.94,106.0,93.8,18.9
2026-06-28T11:43:53.654331,28.600946261109485,29.0,106.0,93.8,18.9
2026-06-28T11:43:53.698023,-14.086545700220233,29.0,106.0,93.8,18.9
2026-06-28T11:43:53.699679,-11.624037985639863,29.0,106.0,93.8,18.9
2026-06-28T11:43:53.701333,70.97818739066722,29.0,106.0,93.8,18.9
2026-06-28T11:43:53.755822,-34.00491712292088,29.0,106.0,93.8,18.9
2026-06-28T11:43:53.757831,12.942015400361761,29.0,106.0,93.8,18.9
2026-06-28T11:43:53.799227,70.50937194236325,29.0,106.0,93.8,18.9
2026-06-28T11:43:53.800935,-32.87194337892011,29.0,106.0,93.8,18.9
2026-06-28T11:43:53.854598,-64.69066278341863,29.0,106.0,93.8,18.9
2026-06-28T11:43:53.856364,-60.82482283804112,29.0,106.0,93.8,18.9
2026-06-28T11:43:53.898950,26.64664788154657,29.0,106.0,93.8,18.9
2026-06-28T11:43:53.900664,-13.654040146615637,29.0,106.0,93.8,18.9
2026-06-28T11:43:53.943662,-30.827884155946883,29.0,106.0,93.8,18.9
2026-06-28T11:43:53.974412,-13.684248419161609,29.0,106.0,93.8,18.9
2026-06-28T11:43:53.976195,11.170197129679957,29.0,106.0,93.8,18.9
2026-06-28T11:43:53.996808,-42.86603395730578,29.0,106.0,93.8,18.9
2026-06-28T11:43:53.998524,63.79900677305139,29.0,106.0,93.8,18.9
2026-06-28T11:43:54.039686,129.0173814069915,29.0,106.0,93.8,18.9
2026-06-28T11:43:54.041237,-65.93065589989722,29.0,106.0,93.8,18.9
2026-06-28T11:43:54.088560,-37.19390362584657,29.0,106.0,93.8,18.9
2026-06-28T11:43:54.109159,-38.691832377218006,29.0,106.0,93.8,18.9
2026-06-28T11:43:54.145140,7.483270898870522,29.0,106.0,93.8,18.9
2026-06-28T11:43:54.146627,-41.31434787051897,29.0,106.0,93.8,18.9
2026-06-28T11:43:54.186580,-25.91651952356893,29.0,106.0,93.8,18.9
2026-06-28T11:43:54.188895,35.46894191209927,29.0,106.0,93.8,18.9
2026-06-28T11:43:54.190642,-77.2483149922353,29.0,106.0,93.8,18.9
2026-06-28T11:43:54.234819,9.59778530044462,29.0,106.0,93.8,18.9
2026-06-28T11:43:54.236426,72.37377387530955,29.0,106.0,93.8,18.9
2026-06-28T11:43:54.283762,72.11500442037676,29.0,106.0,93.8,18.9
2026-06-28T11:43:54.286032,43.28106265003462,29.0,106.0,93.8,18.9
2026-06-28T11:43:54.332926,16.936188892475837,29.0,106.0,93.8,18.9
2026-06-28T11:43:54.354250,27.266457184565823,29.0,106.0,93.8,18.9
2026-06-28T11:43:54.387861,-6.837953110536368,29.0,106.0,93.8,18.9
2026-06-28T11:43:54.389382,-30.032695382069345,29.0,106.0,93.8,18.9
2026-06-28T11:43:54.438687,-31.89240146214028,29.0,106.0,93.8,18.9
2026-06-28T11:43:54.440305,-46.160901269695,29.0,106.0,93.8,18.9
2026-06-28T11:43:54.441868,-39.99995966787999,29.0,106.0,93.8,18.9
2026-06-28T11:43:54.478824,-26.39508095997207,29.0,106.0,93.8,18.9
2026-06-28T11:43:54.480326,-20.722777395197475,29.0,106.0,93.8,18.9
2026-06-28T11:43:54.533469,-9.980270283848757,29.0,106.0,93.8,18.9
2026-06-28T11:43:54.535099,-26.619236146558507,29.0,106.0,93.8,18.9
2026-06-28T11:43:54.577954,-10.707528980691038,29.0,106.0,93.8,18.9
2026-06-28T11:43:54.579871,-8.574825644949822,29.0,106.0,93.8,18.9
2026-06-28T11:43:54.625124,-27.493811385632792,29.0,106.0,93.8,18.9
2026-06-28T11:43:54.627248,-58.72457234474717,29.0,106.0,93.8,18.9
2026-06-28T11:43:54.677128,-49.29026301619115,29.0,106.0,93.8,18.9
2026-06-28T11:43:54.678603,-58.72144228812115,29.0,106.0,93.8,18.9
2026-06-28T11:43:54.679951,-27.824224072697668,29.0,106.0,93.8,18.9
2026-06-28T11:43:54.722950,63.946187384162386,29.0,106.0,93.8,18.9
2026-06-28T11:43:54.725069,20.53026252920278,29.0,106.0,93.8,18.9
2026-06-28T11:43:54.776983,7.115195527017425,29.0,106.0,93.8,18.9
2026-06-28T11:43:54.778618,-1.7190522712233562,29.0,106.0,93.8,18.9
2026-06-28T11:43:54.822777,-14.798099224500657,29.0,106.0,93.8,18.9
2026-06-28T11:43:54.824534,-33.8580798638621,29.0,106.0,93.8,18.9
2026-06-28T11:43:54.869637,-26.103205760264714,29.0,106.0,93.8,18.9
2026-06-28T11:43:54.874512,20.886718097365385,29.0,106.0,93.8,18.9
2026-06-28T11:43:54.921926,51.2870901881457,29.0,106.0,93.8,18.9
2026-06-28T11:43:54.923569,99.459850499411,29.0,106.0,93.8,18.9
2026-06-28T11:43:54.925005,94.4772280987644,29.0,106.0,93.8,18.9
2026-06-28T11:43:54.975974,81.38689840403318,29.0,106.0,93.8,18.9
2026-06-28T11:43:54.977669,62.05920885552301,29.0,106.0,93.8,18.9
2026-06-28T11:43:55.020483,32.64987097053346,29.0,106.0,93.8,18.9
2026-06-28T11:43:55.022165,-22.599429391589677,29.0,106.0,93.8,18.9
2026-06-28T11:43:55.066252,7.208311836741377,29.0,106.0,93.8,18.9
2026-06-28T11:43:55.068195,15.71590935913347,29.0,106.0,93.8,18.9
2026-06-28T11:43:55.118252,-29.363645668713943,29.0,106.0,93.8,18.9
2026-06-28T11:43:55.120530,-4.674552779680974,29.0,106.0,93.8,18.9
2026-06-28T11:43:55.165926,-20.696725742094355,29.0,106.0,93.8,18.9
2026-06-28T11:43:55.167687,-23.5679204724871,29.0,106.0,93.8,18.9
2026-06-28T11:43:55.209383,-21.40981940066594,29.0,106.0,93.8,18.9
2026-06-28T11:43:55.210911,-7.551617408891127,29.0,106.0,93.8,18.9
2026-06-28T11:43:55.212374,-31.556667530482144,29.0,106.0,93.8,18.9
2026-06-28T11:43:55.266984,-22.06797634887365,29.0,106.0,93.8,18.9
2026-06-28T11:43:55.268856,8.126215311006726,29.0,106.0,93.8,18.9
2026-06-28T11:43:55.315243,-24.068146686276847,29.0,106.0,93.8,18.9
2026-06-28T11:43:55.317434,37.07632057593492,29.0,106.0,93.8,18.9
2026-06-28T11:43:55.366157,-43.49465156633078,29.0,106.0,93.8,18.9
2026-06-28T11:43:55.367767,-102.4087169491273,29.0,106.0,93.8,18.9
2026-06-28T11:43:55.410269,65.25886996100401,29.0,106.0,93.8,18.9
2026-06-28T11:43:55.411822,14.33801055158772,29.0,106.0,93.8,18.9
2026-06-28T11:43:55.413384,-57.17566570217462,29.0,106.0,93.8,18.9
2026-06-28T11:43:55.453915,23.978433797083085,29.0,106.0,93.8,18.9
2026-06-28T11:43:55.455489,-3.8900509525321922,29.0,106.0,93.8,18.9
2026-06-28T11:43:55.509731,-31.209266593193178,29.0,106.0,93.8,18.9
2026-06-28T11:43:55.511221,-34.33738556312417,29.0,106.0,93.8,18.9
2026-06-28T11:43:55.550965,32.72023312228038,29.0,106.0,93.8,18.9
2026-06-28T11:43:55.553126,64.73098233210517,29.0,106.0,93.8,18.9
2026-06-28T11:43:55.600943,56.37851455293656,29.0,106.0,93.8,18.9
2026-06-28T11:43:55.650629,92.11186457006872,29.0,106.0,93.8,18.9
2026-06-28T11:43:55.652016,41.11046343898085,29.0,106.0,93.8,18.9
2026-06-28T11:43:55.653156,23.200728056259216,29.0,106.0,93.8,18.9
2026-06-28T11:43:55.654458,6.840301707736504,29.0,106.0,93.8,18.9
2026-06-28T11:43:55.698145,31.565710229330662,29.0,106.0,93.8,18.9
2026-06-28T11:43:55.699857,19.54871840404119,29.0,106.0,93.8,18.9
2026-06-28T11:43:55.753503,-31.109662768844224,29.0,106.0,93.8,18.9
2026-06-28T11:43:55.755121,-9.861123285080737,29.0,106.0,93.8,18.9
2026-06-28T11:43:55.794885,9.008068445918106,29.0,106.0,93.8,18.9
2026-06-28T11:43:55.796963,-33.22539997234949,29.0,106.0,93.8,18.9
2026-06-28T11:43:55.843125,-60.90483128406623,29.0,106.0,93.8,18.9
2026-06-28T11:43:55.844844,-5.778624304101712,29.0,106.0,93.8,18.9
2026-06-28T11:43:55.891995,-26.359065051775175,29.0,106.0,93.8,18.9
2026-06-28T11:43:55.893823,-3.589062947416245,29.0,106.0,93.8,18.9
2026-06-28T11:43:55.895362,23.066851021177097,29.0,106.0,93.8,18.9
2026-06-28T11:43:55.950421,-5.823218513169683,29.0,106.0,93.8,18.9
2026-06-28T11:43:55.952462,-71.19180046407696,29.0,106.0,93.8,18.9
2026-06-28T11:43:55.988865,-57.84589297432127,29.0,106.0,93.8,18.9
2026-06-28T11:43:55.990636,49.94547098926746,29.0,106.0,93.8,18.9
2026-06-28T11:43:56.043686,20.286694820576965,29.0,106.0,93.8,18.9
2026-06-28T11:43:56.045418,-7.926452098098277,29.0,106.0,93.8,18.9
2026-06-28T11:43:56.087004,-18.521622804138683,29.0,106.0,93.8,18.9
2026-06-28T11:43:56.088682,-21.061188104062396,29.0,106.0,93.8,18.9
2026-06-28T11:43:56.144783,-11.953648959038215,29.0,106.0,93.8,18.9
2026-06-28T11:43:56.147020,-47.71418700705297,29.0,106.0,93.8,18.9
2026-06-28T11:43:56.188647,-49.86329483165753,29.0,106.0,93.8,18.9
2026-06-28T11:43:56.190801,-10.033026322379586,29.0,106.0,93.8,18.9
2026-06-28T11:43:56.193159,13.471759866765414,29.0,106.0,93.8,18.9
2026-06-28T11:43:56.234287,52.34257944609833,29.0,106.0,93.8,18.9
2026-06-28T11:43:56.264752,106.97229881607541,29.0,106.0,93.8,18.9
2026-06-28T11:43:56.287587,72.96479492428156,29.0,106.0,93.8,18.9
2026-06-28T11:43:56.331729,27.12840803991292,29.0,106.0,93.8,18.9
2026-06-28T11:43:56.333620,-2.7488212364255347,29.0,106.0,93.8,18.9
2026-06-28T11:43:56.335321,-1.2121228834830404,29.0,106.0,93.8,18.9
2026-06-28T11:43:56.380847,-10.735403622631715,29.0,106.0,93.8,18.9
2026-06-28T11:43:56.382563,-29.08427697970621,29.0,106.0,93.8,18.9
2026-06-28T11:43:56.431739,-19.74645969401561,29.0,106.0,93.8,18.9
2026-06-28T11:43:56.433961,-31.945851617935286,29.0,106.0,93.8,18.9
2026-06-28T11:43:56.481271,-0.7744132775667483,29.0,106.0,93.8,18.9
2026-06-28T11:43:56.482970,-6.761343703317774,29.0,106.0,93.8,18.9
2026-06-28T11:43:56.484422,-0.12224756138578652,29.0,106.0,93.8,18.9
2026-06-28T11:43:56.531623,21.04236495580603,29.0,106.0,93.8,18.9
2026-06-28T11:43:56.533107,5.771165417682582,29.0,106.0,93.8,18.9
2026-06-28T11:43:56.577503,-23.85980334889374,29.0,106.0,93.8,18.9
2026-06-28T11:43:56.578997,-67.67882663420326,29.0,106.0,93.9,18.9
2026-06-28T11:43:56.625787,43.66320578198614,29.0,106.0,93.9,18.9
2026-06-28T11:43:56.632845,44.09774209234239,29.0,106.0,93.9,18.9
2026-06-28T11:43:56.678944,-43.74537152226588,29.0,106.0,93.9,18.9
2026-06-28T11:43:56.680892,-17.419432366221763,29.0,106.0,93.9,18.9
2026-06-28T11:43:56.682772,-46.07045392288346,29.0,106.0,93.9,18.9
2026-06-28T11:43:56.722101,-29.144464812954624,29.0,106.0,93.9,18.9
2026-06-28T11:43:56.744687,-8.469587453492782,29.0,106.0,93.9,18.9
2026-06-28T11:43:56.784325,-46.04662933698958,29.0,106.0,93.9,18.9
2026-06-28T11:43:56.786063,-32.862034529268755,29.0,106.0,93.9,18.9
2026-06-28T11:43:56.821676,-3.7990220534998187,29.0,106.0,93.9,18.9
2026-06-28T11:43:56.823214,18.199773263521042,29.0,106.0,93.9,18.9
2026-06-28T11:43:56.875225,86.67340562357526,29.0,106.0,93.9,18.9
2026-06-28T11:43:56.876956,76.71483493044046,29.0,106.0,93.9,18.9
2026-06-28T11:43:56.920750,66.12821219778431,29.0,106.0,93.9,18.9
2026-06-28T11:43:56.922668,51.98896389530401,29.0,106.0,93.9,18.9
2026-06-28T11:43:56.924374,12.83281846412369,29.0,106.0,93.9,18.9
2026-06-28T11:43:56.964979,27.59800014426107,29.0,106.0,93.9,18.9
2026-06-28T11:43:56.966532,-4.098336288587756,29.0,106.0,93.9,18.9
2026-06-28T11:43:57.021898,-44.272478275598715,29.0,106.0,93.9,18.9
2026-06-28T11:43:57.023747,-35.65031417545196,29.0,106.0,93.9,18.9
2026-06-28T11:43:57.066568,-10.59750656495639,29.0,106.0,93.9,18.9
2026-06-28T11:43:57.068163,2.0714125720920773,29.0,106.0,93.9,18.9
2026-06-28T11:43:57.111217,4.452749822681831,29.0,106.0,93.9,18.9
2026-06-28T11:43:57.132062,-26.4310338613642,29.0,106.0,93.9,18.9
2026-06-28T11:43:57.164356,10.321156051997777,29.0,106.0,93.9,18.9
2026-06-28T11:43:57.165912,-20.83234275550645,29.0,106.0,93.9,18.9
2026-06-28T11:43:57.209185,-79.67143360195958,29.0,106.0,93.9,18.9
2026-06-28T11:43:57.210645,94.10905655525104,29.0,106.0,93.9,18.9
2026-06-28T11:43:57.212041,71.97337621744744,29.0,106.0,93.9,18.9
2026-06-28T11:43:57.257656,-97.82046454159388,29.0,106.0,93.9,18.9
2026-06-28T11:43:57.259173,-11.590696623616044,29.0,106.0,93.9,18.9
2026-06-28T11:43:57.311508,-1.6419725214590173,29.0,106.0,93.9,18.9
2026-06-28T11:43:57.354732,-47.337963385351884,29.0,106.0,93.9,18.9
2026-06-28T11:43:57.356320,-4.516040835309255,29.0,106.0,93.9,18.9
2026-06-28T11:43:57.357882,-32.88091036286363,29.0,106.0,93.9,18.9
2026-06-28T11:43:57.415789,-19.041264992210042,29.0,106.0,93.9,18.9
2026-06-28T11:43:57.417450,-18.577214470937697,29.0,106.0,93.9,18.9
2026-06-28T11:43:57.453181,3.3533154918523222,29.0,106.0,93.9,18.9
2026-06-28T11:43:57.454798,98.37265242446799,29.0,106.0,93.9,18.9
2026-06-28T11:43:57.456222,54.889530499898534,29.0,106.0,93.9,18.9
2026-06-28T11:43:57.510225,43.52453960568459,29.0,106.0,93.9,18.9
2026-06-28T11:43:57.511969,57.68780527850916,29.0,106.0,93.9,18.9
2026-06-28T11:43:57.549652,30.364844681263833,29.0,106.0,93.9,18.9
2026-06-28T11:43:57.551220,-21.754033292742097,29.0,106.0,93.9,18.9
2026-06-28T11:43:57.598659,-29.570671857296976,29.0,106.0,93.9,18.9
2026-06-28T11:43:57.602136,13.913300174355385,29.0,106.0,93.9,18.9
2026-06-28T11:43:57.654001,3.929521364695889,29.0,106.0,93.9,18.9
2026-06-28T11:43:57.655817,25.300306554719405,29.0,106.0,93.9,18.9
2026-06-28T11:43:57.735921,-15.462233462483857,29.0,106.0,93.9,18.9
2026-06-28T11:43:57.737659,-44.75762657576032,29.0,106.0,93.9,18.9
2026-06-28T11:43:57.739349,-23.982488442181296,29.0,106.0,93.9,18.9
2026-06-28T11:43:57.743540,-3.227338471744366,29.0,106.0,93.9,18.9
2026-06-28T11:43:57.799963,-46.13776472738439,29.0,106.0,93.9,18.9
2026-06-28T11:43:57.802053,-61.66612632825088,29.0,106.0,93.9,18.9
2026-06-28T11:43:57.803781,-17.965194406578775,29.0,106.0,93.9,18.9
2026-06-28T11:43:57.842737,-20.717476921405197,29.0,106.0,93.9,18.9
2026-06-28T11:43:57.844615,8.388081016731691,29.0,106.0,93.9,18.9
2026-06-28T11:43:57.902002,-8.55129406379434,29.0,106.0,93.9,18.9
2026-06-28T11:43:57.903654,-39.3321837489249,29.0,106.0,93.9,18.9
2026-06-28T11:43:57.942931,-35.026337027574904,29.0,106.0,93.9,18.9
2026-06-28T11:43:57.945129,-18.326213229922782,29.0,106.0,93.9,18.9
2026-06-28T11:43:57.946710,-43.83292446730471,29.0,106.0,93.9,18.9
2026-06-28T11:43:57.997855,-43.161937001443285,29.0,106.0,93.9,18.9
2026-06-28T11:43:58.000129,4.430076952527431,29.0,106.0,93.9,18.9
2026-06-28T11:43:58.043317,41.16997351002902,29.0,106.0,93.9,18.9
2026-06-28T11:43:58.045226,89.32841824192363,29.0,106.0,93.9,18.9
2026-06-28T11:43:58.087926,69.49031831906697,29.0,106.0,93.9,18.9
2026-06-28T11:43:58.089685,55.4688446445149,29.0,106.0,93.9,18.9
2026-06-28T11:43:58.145790,37.95263529155356,29.0,106.0,93.9,18.9
2026-06-28T11:43:58.147728,-1.0713617492671972,29.0,106.0,93.9,18.9
2026-06-28T11:43:58.184206,1.7582344546792434,29.0,106.0,93.9,18.9
2026-06-28T11:43:58.186016,6.081749288623804,29.0,106.0,93.9,18.9
2026-06-28T11:43:58.187697,-33.04156006093497,29.0,106.0,93.9,18.9
2026-06-28T11:43:58.256696,33.762036167157,29.0,106.0,93.9,18.9
2026-06-28T11:43:58.259025,43.73489672516857,29.0,106.0,93.9,18.9
2026-06-28T11:43:58.285620,-21.191555734851793,29.0,106.0,93.9,18.9
2026-06-28T11:43:58.287213,16.20175480960897,29.0,106.0,93.9,18.9
2026-06-28T11:43:58.333660,3.7451650756504993,29.0,106.0,93.9,18.9
2026-06-28T11:43:58.335618,-31.173795275622922,29.0,106.0,93.9,18.9
2026-06-28T11:43:58.380366,4.060571957568625,29.0,106.0,93.9,18.9
2026-06-28T11:43:58.385317,10.393501134750267,29.0,106.0,93.9,18.9
2026-06-28T11:43:58.478768,-91.69400923429413,29.0,106.0,93.9,18.9
2026-06-28T11:43:58.481097,7.4265665034611565,29.0,106.0,93.9,18.9
2026-06-28T11:43:58.482685,12.91363037459102,29.0,106.0,93.9,18.9
2026-06-28T11:43:58.484014,-38.394864806509766,29.0,106.0,93.9,18.9
2026-06-28T11:43:58.485478,17.639632293504935,29.0,106.0,93.9,18.9
2026-06-28T11:43:58.531700,-41.50118324428699,29.0,106.0,93.9,18.9
2026-06-28T11:43:58.533337,-26.124576010601736,29.0,106.0,93.9,18.9
2026-06-28T11:43:58.577530,-30.201405565956627,29.0,106.0,93.9,18.9
2026-06-28T11:43:58.621991,-2.4987561891644052,29.0,106.0,93.9,18.9
2026-06-28T11:43:58.623975,37.54071481052234,29.0,106.0,93.9,18.9
2026-06-28T11:43:58.625628,80.99827339851265,29.0,106.0,93.9,18.9
2026-06-28T11:43:58.677554,109.49364243049709,29.0,106.0,93.9,18.9
2026-06-28T11:43:58.679371,16.869307941578132,29.0,106.0,93.9,18.9
2026-06-28T11:43:58.721675,-6.499857345910275,29.0,106.0,93.9,18.9
2026-06-28T11:43:58.723274,19.425285452517727,29.0,106.0,93.9,18.9
2026-06-28T11:43:58.724782,-4.493599913545765,29.0,106.0,93.9,18.9
2026-06-28T11:43:58.776006,-29.238843949224655,29.0,106.0,93.9,18.9
2026-06-28T11:43:58.777721,-1.124978584846576,29.0,106.0,93.9,18.9
2026-06-28T11:43:58.822618,21.021004372287308,29.0,106.0,93.9,18.9
2026-06-28T11:43:58.824275,-3.125117634430329,29.0,106.0,93.9,18.9
2026-06-28T11:43:58.875769,-26.331413105810896,29.0,106.0,93.9,18.9
2026-06-28T11:43:58.877569,-14.104872070738123,29.0,106.0,93.9,18.9
2026-06-28T11:43:58.921959,7.472039337185756,29.0,106.0,93.9,18.9
2026-06-28T11:43:58.923893,-91.79252545259227,29.0,106.0,93.9,18.9
2026-06-28T11:43:58.966784,28.741931072964974,29.0,106.0,93.9,18.9
2026-06-28T11:43:58.968302,101.19105693473512,29.0,106.0,93.9,18.9
2026-06-28T11:43:58.969865,-60.951522682897064,29.0,106.0,93.9,18.9
2026-06-28T11:43:59.020648,-12.169706691775424,29.0,106.0,93.9,18.9
2026-06-28T11:43:59.022519,-21.247760827161418,29.0,106.0,93.9,18.9
2026-06-28T11:43:59.066607,-47.317198197894335,29.0,106.0,93.9,18.9
2026-06-28T11:43:59.068208,-7.594661206306128,29.0,106.0,93.9,18.9
2026-06-28T11:43:59.110122,-37.974611420708975,29.0,106.0,93.9,18.9
2026-06-28T11:43:59.165679,-61.870691947376415,29.0,106.0,93.9,18.9
2026-06-28T11:43:59.167332,43.84150250445644,29.0,106.0,93.9,18.9
2026-06-28T11:43:59.168863,35.78495513257934,29.0,106.0,93.9,18.9
2026-06-28T11:43:59.210565,16.51519953284903,29.0,106.0,93.9,18.9
2026-06-28T11:43:59.212235,83.31985936344275,29.0,106.0,93.9,18.9
2026-06-28T11:43:59.255944,37.89151298812173,29.0,106.0,93.9,18.9
2026-06-28T11:43:59.257611,8.875137940381233,29.0,106.0,93.9,18.9
2026-06-28T11:43:59.308552,25.09796268723549,29.0,106.0,93.9,18.9
2026-06-28T11:43:59.355018,34.70826001098402,29.0,106.0,93.9,18.9
2026-06-28T11:43:59.356945,-39.286235557171096,29.0,106.0,93.9,18.9
2026-06-28T11:43:59.358546,3.4529049463602246,29.0,106.0,93.9,18.9
2026-06-28T11:43:59.360555,15.602116027525874,29.0,106.0,93.9,18.9
2026-06-28T11:43:59.411922,-27.928554162863687,29.0,106.0,93.9,18.9
2026-06-28T11:43:59.413901,-23.43383751268511,29.0,106.0,93.9,18.9
2026-06-28T11:43:59.454949,-18.160261911838322,29.0,106.0,93.9,18.9
2026-06-28T11:43:59.456587,-6.663537079664534,29.0,106.0,93.9,18.9
2026-06-28T11:43:59.510782,-79.51364435887594,29.0,106.0,93.9,18.9
2026-06-28T11:43:59.555222,14.144221358390759,29.0,106.0,93.9,18.9
2026-06-28T11:43:59.556914,45.902605090371125,29.0,106.0,93.9,18.9
2026-06-28T11:43:59.558529,-55.11195051174567,29.0,106.0,94.0,18.9
2026-06-28T11:43:59.560004,-11.97899465544753,29.0,106.0,94.0,18.9
2026-06-28T11:43:59.598356,-2.2632975135657096,29.0,106.0,94.0,18.9
2026-06-28T11:43:59.600660,-13.642819849614657,29.0,106.0,94.0,18.9
2026-06-28T11:43:59.653722,-34.230102745148784,29.0,106.0,94.0,18.9
2026-06-28T11:43:59.656097,-64.70224941164838,29.0,106.0,94.0,18.9
2026-06-28T11:43:59.694304,-39.96382849930168,29.0,106.0,94.0,18.9
2026-06-28T11:43:59.696283,-15.915537496500939,29.0,106.0,94.0,18.9
2026-06-28T11:43:59.742426,-2.4665673295829507,29.0,106.0,94.0,18.9
2026-06-28T11:43:59.744044,44.074625255147026,29.0,106.0,94.0,18.9
2026-06-28T11:43:59.792062,81.26703634285856,29.0,106.0,94.0,18.9
2026-06-28T11:43:59.793746,88.5565566994747,29.0,106.0,94.0,18.9
2026-06-28T11:43:59.795330,40.29754027877467,29.0,106.0,94.0,18.9
2026-06-28T11:43:59.843077,3.7367996651183546,29.0,106.0,94.0,18.9
2026-06-28T11:43:59.845161,2.023433244659998,29.0,106.0,94.0,18.9
2026-06-28T11:43:59.898126,2.7556705031029836,29.0,106.0,94.0,18.9
2026-06-28T11:43:59.900059,-10.436586336271981,29.0,106.0,94.0,18.9
2026-06-28T11:43:59.943287,-36.13294938048821,29.0,106.0,94.0,18.9
2026-06-28T11:43:59.945154,5.302340429031586,29.0,106.0,94.0,18.9
2026-06-28T11:43:59.987182,-36.22443563004223,29.0,106.0,94.0,18.9
2026-06-28T11:43:59.989269,-27.67553095464997,29.0,106.0,94.0,18.9
2026-06-28T11:44:00.044404,1.5860744515757972,29.0,106.0,94.0,18.9
2026-06-28T11:44:00.046515,-78.88448370327957,29.0,106.0,94.0,18.9
2026-06-28T11:44:00.048149,-21.169626605214642,29.0,106.0,94.0,18.9
2026-06-28T11:44:00.086782,35.141326391248576,29.0,106.0,94.0,18.9
2026-06-28T11:44:00.088668,-46.71025256503799,29.0,106.0,94.0,18.9
2026-06-28T11:44:00.132692,-35.65948517258016,29.0,106.0,94.0,18.9
2026-06-28T11:44:00.151820,-20.069869021354037,29.0,106.0,94.0,18.9
2026-06-28T11:44:00.187326,-31.969691766048918,29.0,106.0,94.0,18.9
2026-06-28T11:44:00.189068,10.538165505520126,29.0,106.0,94.0,18.9
2026-06-28T11:44:00.231343,-20.980521995541224,29.0,106.0,94.0,18.9
2026-06-28T11:44:00.232932,-5.719674216848114,29.0,106.0,94.0,18.9
2026-06-28T11:44:00.289752,20.38431542736752,29.0,106.0,94.0,18.9
2026-06-28T11:44:00.291491,17.265459551370107,29.0,106.0,94.0,18.9
2026-06-28T11:44:00.332725,54.21803234128434,29.0,106.0,94.0,18.9
2026-06-28T11:44:00.334693,95.5135578146744,29.0,106.0,94.0,18.9
2026-06-28T11:44:00.336285,90.4883679701379,29.0,106.0,94.0,18.9
2026-06-28T11:44:00.378362,10.66890928749116,29.0,106.0,94.0,18.9
2026-06-28T11:44:00.397837,19.525374395028454,29.0,106.0,94.0,18.9
2026-06-28T11:44:00.433357,22.94328275753815,29.0,106.0,94.0,18.9
2026-06-28T11:44:00.475577,-11.939287261871847,29.0,106.0,94.0,18.9
2026-06-28T11:44:00.477231,-9.110269799714896,29.0,106.0,94.0,18.9
2026-06-28T11:44:00.478721,-20.170917840886666,29.0,106.0,94.0,18.9
2026-06-28T11:44:00.524162,-4.445869068717922,29.0,106.0,94.0,18.9
2026-06-28T11:44:00.525779,3.7115962270770297,29.0,106.0,94.0,18.9
2026-06-28T11:44:00.577456,-14.652140886876252,29.0,106.0,94.0,18.9
2026-06-28T11:44:00.579139,-92.79186900322881,29.0,106.0,94.0,18.9
2026-06-28T11:44:00.580695,46.938146304206114,29.0,106.0,94.0,18.9
2026-06-28T11:44:00.620987,7.4657035380125105,29.0,106.0,94.0,18.9
2026-06-28T11:44:00.622791,-119.51037915121232,29.0,106.0,94.0,18.9
2026-06-28T11:44:00.681586,71.85700547965838,29.0,106.0,94.0,18.9
2026-06-28T11:44:00.683249,-9.852154577308962,29.0,106.0,94.0,18.9
2026-06-28T11:44:00.721781,-35.02564748865421,29.0,106.0,94.0,18.9
2026-06-28T11:44:00.723633,25.3321118159158,29.0,106.0,94.0,18.9
2026-06-28T11:44:00.775572,-16.963478464076633,29.0,106.0,94.0,18.9
2026-06-28T11:44:00.777865,-68.50937317570984,29.0,106.0,94.0,18.9
2026-06-28T11:44:00.821628,-2.515528708138026,29.0,106.0,94.0,18.9
2026-06-28T11:44:00.823273,78.78954207936701,29.0,106.0,94.0,18.9
2026-06-28T11:44:00.865719,32.75564710060866,29.0,106.0,94.0,18.9
2026-06-28T11:44:00.867402,6.002402905404605,29.0,106.0,94.0,18.9
2026-06-28T11:44:00.868998,33.53898782415509,29.0,106.0,94.0,18.9
2026-06-28T11:44:00.920328,94.24009153466247,29.0,106.0,94.0,18.9
2026-06-28T11:44:00.921987,43.13208610800835,29.0,106.0,94.0,18.9
2026-06-28T11:44:00.964975,31.601333341568953,29.0,106.0,94.0,18.9
2026-06-28T11:44:00.966848,3.066679621239981,29.0,106.0,94.0,18.9
2026-06-28T11:44:01.022263,2.2692331121108325,29.0,106.0,94.0,18.9
2026-06-28T11:44:01.024208,-35.84984221278336,29.0,106.0,94.0,18.9
2026-06-28T11:44:01.064473,-3.1934391214719096,29.0,106.0,94.0,18.9
2026-06-28T11:44:01.066165,57.36834932450683,29.0,106.0,94.0,18.9
2026-06-28T11:44:01.067760,8.491710099941033,29.0,106.0,94.0,18.9
2026-06-28T11:44:01.109765,-79.66679807845235,29.0,106.0,94.0,18.9
2026-06-28T11:44:01.111321,17.211360847101524,29.0,106.0,94.0,18.9
2026-06-28T11:44:01.164880,110.39467891015835,29.0,106.0,94.1,18.9
2026-06-28T11:44:01.166598,-137.10779730987284,29.0,106.0,94.1,18.9
2026-06-28T11:44:01.211208,17.80790731409861,29.0,106.0,94.1,18.9
2026-06-28T11:44:01.213179,82.1545499195162,29.0,106.0,94.1,18.9
2026-06-28T11:44:01.255468,-75.03401213867974,29.0,106.0,94.1,18.9
2026-06-28T11:44:01.275842,-74.25271413225977,29.0,106.0,94.1,18.9
2026-06-28T11:44:01.307163,-68.92353218356781,29.0,106.0,94.1,18.9
2026-06-28T11:44:01.308689,22.07524611296968,29.0,106.0,94.1,18.9
2026-06-28T11:44:01.359695,-7.392664485050428,29.0,106.0,94.1,18.9
2026-06-28T11:44:01.361438,21.328504557276496,29.0,106.0,94.1,18.9
2026-06-28T11:44:01.362916,67.55929818250821,29.0,106.0,94.1,18.9
2026-06-28T11:44:01.408814,69.54222495192644,29.0,106.0,94.1,18.9
2026-06-28T11:44:01.410815,49.702729218309045,29.0,106.0,94.1,18.9
2026-06-28T11:44:01.460341,31.714167604547107,29.0,106.0,94.1,18.9
2026-06-28T11:44:01.488024,25.69885672927598,29.0,106.0,94.1,18.9
2026-06-28T11:44:01.498245,-23.9141039725538,29.0,106.0,94.1,18.9
2026-06-28T11:44:01.500359,-26.157211892829952,29.0,106.0,94.1,18.9
2026-06-28T11:44:01.555568,-26.637618237238414,29.0,106.0,94.1,18.9
2026-06-28T11:44:01.557628,-48.34136356268695,29.0,106.0,94.1,18.9
2026-06-28T11:44:01.596897,-48.720430034552834,29.0,106.0,94.1,18.9
2026-06-28T11:44:01.598652,-33.860595513164,29.0,106.0,94.1,18.9
2026-06-28T11:44:01.600309,-36.4817650905634,29.0,106.0,94.1,18.9
2026-06-28T11:44:01.644340,-111.98608381851797,29.0,106.0,94.1,18.9
2026-06-28T11:44:01.646410,-31.693499244968283,29.0,106.0,94.1,18.9
2026-06-28T11:44:01.699726,93.00112679583367,29.0,106.0,94.1,18.9
2026-06-28T11:44:01.701933,-23.02048347727537,29.0,106.0,94.0,18.9
2026-06-28T11:44:01.742468,-32.488577832329874,29.0,106.0,94.0,18.9
2026-06-28T11:44:01.744301,-21.73537552263153,29.0,106.0,94.0,18.9
2026-06-28T11:44:01.798927,-52.97697452568564,29.0,106.0,94.0,18.9
2026-06-28T11:44:01.800789,-28.031537009131164,29.0,106.0,94.0,18.9
2026-06-28T11:44:01.802618,-50.478511070353065,29.0,106.0,94.0,18.9
2026-06-28T11:44:01.839611,-45.49369275277516,29.0,106.0,94.0,18.9
2026-06-28T11:44:01.841107,-25.04902335329788,29.0,106.0,94.0,18.9
2026-06-28T11:44:01.891560,27.810402427220502,29.0,106.0,94.0,18.9
2026-06-28T11:44:01.893638,55.40377486499487,29.0,106.0,94.0,18.9
2026-06-28T11:44:01.943219,100.39563448754188,29.0,106.0,94.0,18.9
2026-06-28T11:44:01.945370,92.46254722095254,29.0,106.0,94.0,18.9
2026-06-28T11:44:01.986645,7.1963755190425776,29.0,106.0,94.0,18.9
2026-06-28T11:44:01.988488,20.758948753770035,29.0,106.0,94.0,18.9
2026-06-28T11:44:02.043859,21.19554409400459,29.0,106.0,94.0,18.9
2026-06-28T11:44:02.045650,-7.474931020095482,29.0,106.0,94.0,18.9
2026-06-28T11:44:02.086272,-21.040236427493408,29.0,106.0,94.0,18.9
2026-06-28T11:44:02.087967,8.433305220449636,29.0,106.0,94.0,18.9
2026-06-28T11:44:02.089576,18.565094786891912,29.0,106.0,94.0,18.9
2026-06-28T11:44:02.132952,2.240718264370209,29.0,106.0,94.0,18.9
2026-06-28T11:44:02.134857,7.796922255452229,29.0,106.0,94.0,18.9
2026-06-28T11:44:02.188219,-45.83588231742776,29.0,106.0,94.0,18.9
2026-06-28T11:44:02.190295,-58.71848456441689,29.0,106.0,94.0,18.9
2026-06-28T11:44:02.235026,-16.237581285278264,29.0,106.0,94.0,18.9
2026-06-28T11:44:02.236650,17.461690857475677,29.0,106.0,94.0,18.9
2026-06-28T11:44:02.278021,21.606935646594124,29.0,106.0,94.0,18.9
2026-06-28T11:44:02.280095,-4.032925607275242,29.0,106.0,94.0,18.9
2026-06-28T11:44:02.332873,-16.191815440628243,29.0,106.0,94.0,18.9
2026-06-28T11:44:02.335089,-9.004018362039021,29.0,106.0,94.0,18.9
2026-06-28T11:44:02.336902,-13.68357067889273,29.0,106.0,94.0,18.9
2026-06-28T11:44:02.377531,-25.16442423263477,29.0,106.0,94.0,18.9
2026-06-28T11:44:02.406176,-9.095250321895454,29.0,106.0,94.0,18.9
2026-06-28T11:44:02.445994,61.505384086873555,29.0,106.0,94.0,18.9
2026-06-28T11:44:02.449980,89.60012306969455,29.0,106.0,94.0,18.9
2026-06-28T11:44:02.512685,60.594774935094016,29.0,106.0,94.0,18.9
2026-06-28T11:44:02.515295,83.34277165161879,29.0,106.0,94.0,18.9
2026-06-28T11:44:02.542111,37.94918180796452,29.0,106.0,94.0,18.9
2026-06-28T11:44:02.543684,3.1317391817833524,29.0,106.0,94.0,18.9
2026-06-28T11:44:02.570903,-2.0375660630148715,29.0,106.0,94.0,18.9
2026-06-28T11:44:02.572500,-3.8522121024972336,29.0,106.0,94.0,18.9
2026-06-28T11:44:02.574175,-7.1526930897966405,29.0,106.0,94.0,18.9
2026-06-28T11:44:02.619113,-24.633517012685093,29.0,106.0,94.0,18.9
2026-06-28T11:44:02.620557,-27.58436481009917,29.0,106.0,94.0,18.9
2026-06-28T11:44:02.675398,-32.02205437559179,29.0,106.0,94.0,18.9
2026-06-28T11:44:02.723219,-5.0819570183373015,29.0,106.0,94.0,18.9
2026-06-28T11:44:02.743767,-14.451797958652925,29.0,106.0,94.0,18.9
2026-06-28T11:44:02.745394,-43.33944031549621,29.0,106.0,94.0,18.9
2026-06-28T11:44:02.771151,50.17881426797011,29.0,106.0,94.0,18.9
2026-06-28T11:44:02.772755,97.20906011373876,29.0,106.0,94.0,18.9
2026-06-28T11:44:02.819396,-49.30644608697599,29.0,106.0,94.0,18.9
2026-06-28T11:44:02.821395,-25.960932929526706,29.0,106.0,94.0,18.9
2026-06-28T11:44:02.865593,-27.845071664261162,29.0,106.0,94.0,18.9
2026-06-28T11:44:02.867381,-70.78028358492786,29.0,106.0,94.0,18.9
2026-06-28T11:44:02.922926,-2.663755827077047,29.0,106.0,94.0,18.9
2026-06-28T11:44:02.924628,-38.28449594888558,29.0,106.0,94.0,18.9
2026-06-28T11:44:02.926238,-43.32033891095816,29.0,106.0,94.0,18.9
2026-06-28T11:44:02.965351,-6.307870374672646,29.0,106.0,94.0,18.9
2026-06-28T11:44:03.009135,49.753703507038146,29.0,106.0,94.0,18.9
2026-06-28T11:44:03.010891,89.12784955165753,29.0,106.0,94.0,18.9
2026-06-28T11:44:03.012629,58.32844624529845,29.0,106.0,94.0,18.9
2026-06-28T11:44:03.065224,45.255431172945485,29.0,106.0,94.0,18.9
2026-06-28T11:44:03.067181,19.9725372494898,29.0,106.0,94.0,18.9
2026-06-28T11:44:03.108505,-11.393266442263553,29.0,106.0,94.0,18.9
2026-06-28T11:44:03.110274,-13.936475361351112,29.0,106.0,94.0,18.9
2026-06-28T11:44:03.157296,-20.19031795145504,29.0,106.0,94.0,18.9
2026-06-28T11:44:03.158984,-39.606520773987796,29.0,106.0,94.0,18.9
2026-06-28T11:44:03.177997,-37.296105772447824,29.0,106.0,94.0,18.9
2026-06-28T11:44:03.206194,-19.303050884314793,29.0,106.0,94.0,18.9
2026-06-28T11:44:03.207581,-25.32182769286314,29.0,106.0,94.0,18.9
2026-06-28T11:44:03.254146,-27.102689871555803,29.0,106.0,94.0,18.9
2026-06-28T11:44:03.255900,-23.639905793058052,29.0,106.0,94.0,18.9
2026-06-28T11:44:03.309665,1.9847547476098972,29.0,106.0,94.0,18.9
2026-06-28T11:44:03.311537,-38.78321901022823,29.0,106.0,94.0,18.9
2026-06-28T11:44:03.350581,17.584626982489326,29.0,106.0,94.0,18.9
2026-06-28T11:44:03.352204,-18.565739835667166,29.0,106.0,94.0,18.9
2026-06-28T11:44:03.401315,-82.56100725395038,29.0,106.0,94.0,18.9
2026-06-28T11:44:03.466351,43.34219357590314,29.0,106.0,94.0,18.9
2026-06-28T11:44:03.467906,-18.00269327329681,29.0,106.0,94.0,18.9
2026-06-28T11:44:03.469499,-18.949240683704534,29.0,106.0,94.0,18.9
2026-06-28T11:44:03.470984,-20.20269634450039,29.0,106.0,94.0,18.9
2026-06-28T11:44:03.496458,-38.519083202909215,29.0,106.0,94.0,18.9
2026-06-28T11:44:03.555934,-8.094996382462657,29.0,106.0,94.0,18.9
2026-06-28T11:44:03.557704,-11.622943843396605,29.0,106.0,94.0,18.9
2026-06-28T11:44:03.559225,11.390664093992116,29.0,106.0,94.0,18.9
2026-06-28T11:44:03.599024,24.89344627973471,29.0,106.0,94.0,18.9
2026-06-28T11:44:03.643522,78.78358110917573,29.0,106.0,94.0,18.9
2026-06-28T11:44:03.664676,78.52744593709969,29.0,106.0,94.0,18.9
2026-06-28T11:44:03.666619,48.70313987993109,29.0,106.0,94.0,18.9
2026-06-28T11:44:03.668172,33.44306310686562,29.0,106.0,94.0,18.9
2026-06-28T11:44:03.694704,47.68280490651489,29.0,106.0,94.0,18.9
2026-06-28T11:44:03.696315,4.5788433937019875,29.0,106.0,94.0,18.9
2026-06-28T11:44:03.741483,-19.34148403686119,29.0,106.0,94.0,18.9
2026-06-28T11:44:03.743812,-1.1290839404034507,29.0,106.0,94.0,18.9
2026-06-28T11:44:03.789939,-14.667371221519305,29.0,106.0,94.0,18.9
2026-06-28T11:44:03.840690,-20.62018963643741,29.0,106.0,94.0,18.9
2026-06-28T11:44:03.844119,-9.438511978663481,29.0,106.0,94.0,18.9
2026-06-28T11:44:03.848072,10.422162072368181,29.0,106.0,94.0,18.9
2026-06-28T11:44:03.919489,-9.537658698819715,29.0,106.0,94.0,18.9
2026-06-28T11:44:03.923572,4.01214846131589,29.0,106.0,94.0,18.9
2026-06-28T11:44:03.957998,-25.161939042977746,29.0,106.0,94.0,18.9
2026-06-28T11:44:03.959495,-24.716603173770988,29.0,106.0,94.0,18.9
2026-06-28T11:44:03.960923,-3.868453237804755,29.0,106.0,94.0,18.9
2026-06-28T11:44:03.984319,-84.92395362356972,29.0,106.0,94.0,18.9
2026-06-28T11:44:03.986182,101.40875959469832,29.0,106.0,94.0,18.9
2026-06-28T11:44:04.045246,87.05755182811109,29.0,106.0,94.0,18.9
2026-06-28T11:44:04.046846,-163.85273516921933,29.0,106.0,94.0,18.9
2026-06-28T11:44:04.086617,-15.661148613554431,29.0,106.0,94.0,18.9
2026-06-28T11:44:04.088322,2.7306400227343843,29.0,106.0,94.0,18.9
2026-06-28T11:44:04.131512,-71.22505984637313,29.0,106.0,94.0,18.9
2026-06-28T11:44:04.133381,-22.751480376420822,29.0,106.0,94.0,18.9
2026-06-28T11:44:04.187285,-33.69616652990298,29.0,106.0,94.0,18.9
2026-06-28T11:44:04.189246,-15.319908625014158,29.0,106.0,94.0,18.9
2026-06-28T11:44:04.190985,-6.3143862164710605,29.0,106.0,94.0,18.9
2026-06-28T11:44:04.234877,22.636424856317092,29.0,106.0,94.0,18.9
2026-06-28T11:44:04.236722,66.35127321612099,29.0,106.0,94.0,18.9
2026-06-28T11:44:04.279441,58.733090477329945,29.0,106.0,94.0,18.9
2026-06-28T11:44:04.281209,61.3049593234526,29.0,106.0,94.0,18.9
2026-06-28T11:44:04.330960,38.735411104134634,29.0,106.0,94.0,18.9
2026-06-28T11:44:04.376033,22.27705773460324,29.0,106.0,94.0,18.9
2026-06-28T11:44:04.378002,-2.237764349667433,29.0,106.0,94.0,18.9
2026-06-28T11:44:04.379749,-4.364271507754886,29.0,106.0,94.0,18.9
2026-06-28T11:44:04.428951,43.53451274113945,29.0,106.0,94.0,18.9
2026-06-28T11:44:04.430603,-16.03731308806286,29.0,106.0,94.0,18.9
2026-06-28T11:44:04.476757,-30.47477796944523,29.0,106.0,94.0,18.9
2026-06-28T11:44:04.478762,16.68753469820353,29.0,106.0,94.0,18.9
2026-06-28T11:44:04.480498,11.148822172534544,29.0,106.0,94.0,18.9
2026-06-28T11:44:04.530941,-30.176702595519945,29.0,106.0,94.0,18.9
2026-06-28T11:44:04.532722,-7.773850487765014,29.0,106.0,94.0,18.9
2026-06-28T11:44:04.570030,41.74447320075621,29.0,106.0,94.0,18.9
2026-06-28T11:44:04.572264,2.033976736606001,29.0,106.0,94.0,18.9
2026-06-28T11:44:04.618664,1.9370118434785084,29.0,106.0,94.0,18.9
2026-06-28T11:44:04.620227,0.42435654402597134,29.0,106.0,94.0,18.9
2026-06-28T11:44:04.676127,-49.79403296925273,29.0,106.0,94.0,18.9
2026-06-28T11:44:04.678052,38.227252167697756,29.0,106.0,94.0,18.9
2026-06-28T11:44:04.721616,31.08473889318738,29.0,106.0,94.0,18.9
2026-06-28T11:44:04.723316,-76.1733115526024,29.0,106.0,94.0,18.9
2026-06-28T11:44:04.724791,13.66540298175108,29.0,106.0,94.0,18.9
2026-06-28T11:44:04.766011,16.091954528558837,29.0,106.0,94.0,18.9
2026-06-28T11:44:04.767983,-9.87867135668803,29.0,106.0,94.0,18.9
2026-06-28T11:44:04.820316,13.605840918529267,29.0,106.0,94.0,18.9
2026-06-28T11:44:04.822033,-33.210826773876924,29.0,106.0,94.0,18.9
2026-06-28T11:44:04.862784,-41.8324036684517,29.0,106.0,94.0,18.9
2026-06-28T11:44:04.864381,-39.74419889562093,29.0,106.0,94.0,18.9
2026-06-28T11:44:04.920202,-11.522438607673106,29.0,106.0,94.0,18.9
2026-06-28T11:44:04.965363,36.40305924405746,29.0,106.0,94.0,18.9
2026-06-28T11:44:04.966939,64.28460974954601,29.0,106.0,94.0,18.9
2026-06-28T11:44:04.968360,78.50744735410628,29.0,106.0,94.0,18.9
2026-06-28T11:44:04.969810,67.0665368969879,29.0,106.0,94.0,18.9
2026-06-28T11:44:05.008583,19.897701502897963,29.0,106.0,94.0,18.9
2026-06-28T11:44:05.010166,-2.3988613105458256,29.0,106.0,94.0,18.9
2026-06-28T11:44:05.064334,23.54352349764468,29.0,106.0,94.0,18.9
2026-06-28T11:44:05.066014,9.698184628212758,29.0,106.0,94.0,18.9
2026-06-28T11:44:05.107720,-7.00510774525811,29.0,106.0,94.0,18.9
2026-06-28T11:44:05.109407,-1.7322484584662163,29.0,106.0,94.0,18.9
2026-06-28T11:44:05.154601,-14.238509387141168,29.0,106.0,94.0,18.9
2026-06-28T11:44:05.156270,-38.127253458042446,29.0,106.0,94.0,18.9
2026-06-28T11:44:05.210292,-16.449334902760697,29.0,106.0,94.0,18.9
2026-06-28T11:44:05.212413,-18.541406917638433,29.0,106.0,94.0,18.9
2026-06-28T11:44:05.214115,-45.471317830393986,29.0,106.0,94.0,18.9
2026-06-28T11:44:05.252885,-14.925958827670135,29.0,106.0,94.0,18.9
2026-06-28T11:44:05.254903,-20.634695390914796,29.0,106.0,94.0,18.9
2026-06-28T11:44:05.309433,-55.42409775980408,29.0,106.0,94.0,18.9
2026-06-28T11:44:05.311256,-55.966266576796045,29.0,106.0,94.0,18.9
2026-06-28T11:44:05.352888,15.21335768173519,29.0,106.0,94.0,18.9
2026-06-28T11:44:05.354616,4.957600519735571,29.0,106.0,94.0,18.9
2026-06-28T11:44:05.399034,-9.570711107374102,29.0,106.0,94.0,18.9
2026-06-28T11:44:05.400626,-20.03027749899789,29.0,106.0,94.0,18.9
2026-06-28T11:44:05.453240,-75.64060316194714,29.0,106.0,94.0,18.9
2026-06-28T11:44:05.454905,-13.844699107383459,29.0,106.0,94.0,18.9
2026-06-28T11:44:05.456334,-24.231121477045217,29.0,106.0,94.0,18.9
2026-06-28T11:44:05.498462,-50.19236954496507,29.0,106.0,94.0,18.9
2026-06-28T11:44:05.500329,0.7045406088695323,29.0,106.0,94.0,18.9
2026-06-28T11:44:05.553821,45.416264271053855,29.0,106.0,94.0,18.9
2026-06-28T11:44:05.555713,76.6734378992425,29.0,106.0,94.0,18.9
2026-06-28T11:44:05.596771,101.08532650306714,29.0,106.0,94.0,18.9
2026-06-28T11:44:05.598415,88.67364272819489,29.0,106.0,94.0,18.9
2026-06-28T11:44:05.648650,50.79776980830636,29.0,106.0,94.0,18.9
2026-06-28T11:44:05.650286,34.02651212583551,29.0,106.0,94.0,18.9
2026-06-28T11:44:05.699873,-15.759122589774744,29.0,106.0,94.0,18.9
2026-06-28T11:44:05.701673,-9.691685368248809,29.0,106.0,94.0,18.9
2026-06-28T11:44:05.703057,-15.995869577952018,29.0,106.0,94.0,18.9
2026-06-28T11:44:05.742053,-52.413425565757414,29.0,106.0,94.0,18.9
2026-06-28T11:44:05.743692,-20.540784246176123,29.0,106.0,94.0,18.9
2026-06-28T11:44:05.788448,8.49664105010409,29.0,106.0,94.0,18.9
2026-06-28T11:44:05.807529,-36.54965571379203,29.0,106.0,94.0,18.9
2026-06-28T11:44:05.849497,-33.37989661236139,29.0,106.0,94.0,18.9
2026-06-28T11:44:05.851095,28.41651301657104,29.0,106.0,94.0,18.9
2026-06-28T11:44:05.887795,-12.32969668813183,29.0,106.0,94.0,18.9
2026-06-28T11:44:05.889543,-68.6394240879205,29.0,106.0,94.0,18.9
2026-06-28T11:44:05.943197,-44.76618472646703,29.0,106.0,94.0,18.9
2026-06-28T11:44:05.944920,15.73659836589259,29.0,106.0,94.0,18.9
2026-06-28T11:44:05.986915,7.506683780594608,29.0,106.0,94.0,18.9
2026-06-28T11:44:05.988532,0.06589911956028516,29.0,106.0,94.0,18.9
2026-06-28T11:44:06.032741,-2.570004745036023,29.0,106.0,94.0,18.9
2026-06-28T11:44:06.056918,-9.56554503679509,29.0,106.0,94.0,18.9
2026-06-28T11:44:06.058532,-19.955195882999735,29.0,106.0,94.0,18.9
2026-06-28T11:44:06.081296,-39.71742342403487,29.0,106.0,94.0,18.9
2026-06-28T11:44:06.082653,-2.6344418992451653,29.0,106.0,94.0,18.9
2026-06-28T11:44:06.131469,19.768215682661147,29.0,106.0,94.0,18.9
2026-06-28T11:44:06.133123,69.27989965385397,29.0,106.0,94.0,18.9
2026-06-28T11:44:06.187456,103.48973198269829,29.0,106.0,94.0,18.9
2026-06-28T11:44:06.189255,80.18153958847171,29.0,106.0,94.0,18.9
2026-06-28T11:44:06.235152,45.268530838587424,29.0,106.0,94.0,18.9
2026-06-28T11:44:06.236665,28.25577491336295,29.0,106.0,94.0,18.9
2026-06-28T11:44:06.276623,12.176292232479874,29.0,106.0,94.0,18.9
2026-06-28T11:44:06.278278,-7.545333781511481,29.0,106.0,94.0,18.9
2026-06-28T11:44:06.279732,16.258451729386035,29.0,106.0,94.0,18.9
2026-06-28T11:44:06.331204,16.89260176586064,29.0,106.0,94.0,18.9
2026-06-28T11:44:06.333284,6.032820964642219,29.0,106.0,94.0,18.9
2026-06-28T11:44:06.377010,-7.036247357648644,29.0,106.0,94.0,18.9
2026-06-28T11:44:06.378942,-37.783268469225256,29.0,106.0,94.0,18.9
2026-06-28T11:44:06.423083,-29.956218642212757,29.0,106.0,94.0,18.9
2026-06-28T11:44:06.427510,-23.936241188530644,29.0,106.0,94.0,18.9
2026-06-28T11:44:06.475145,-95.75350228912494,29.0,106.0,94.0,18.9
2026-06-28T11:44:06.476953,23.353338434933356,29.0,106.0,94.0,18.9
2026-06-28T11:44:06.521113,143.01691223924564,29.0,106.0,94.0,18.9
2026-06-28T11:44:06.522602,-38.207228034949615,29.0,106.0,94.0,18.9
2026-06-28T11:44:06.523786,-50.782609991110824,29.0,106.0,94.0,18.9
2026-06-28T11:44:06.575349,27.579124049090808,29.0,106.0,94.0,18.9
2026-06-28T11:44:06.577406,-26.49681536381775,29.0,106.0,94.0,18.9
2026-06-28T11:44:06.619962,-4.512999499233025,29.0,106.0,94.0,18.9
2026-06-28T11:44:06.621661,39.058332724499074,29.0,106.0,94.0,18.9
2026-06-28T11:44:06.679294,6.323981166687664,29.06,106.0,94.0,18.9
2026-06-28T11:44:06.680963,-13.414192552961035,29.06,106.0,94.0,18.9
2026-06-28T11:44:06.719883,-26.106878090946182,29.06,106.0,94.0,18.9
2026-06-28T11:44:06.721792,32.948795659977684,29.06,106.0,94.0,18.9
2026-06-28T11:44:06.766424,98.27383565729801,29.06,106.0,94.0,18.9
2026-06-28T11:44:06.768052,23.190898608603746,29.06,106.0,94.0,18.9
2026-06-28T11:44:06.769543,-1.3019877342653565,29.06,106.0,94.0,18.9
2026-06-28T11:44:06.820298,-12.713490792089909,29.06,106.0,94.0,18.9
2026-06-28T11:44:06.822457,-54.36588820735648,29.06,106.0,94.0,18.9
2026-06-28T11:44:06.865375,-68.5604006144863,29.06,106.0,94.0,18.9
2026-06-28T11:44:06.867318,-55.739322561131196,29.06,106.0,94.0,18.9
2026-06-28T11:44:06.919135,-33.24789702426741,29.06,106.0,94.0,18.9
2026-06-28T11:44:06.920812,-79.76811804421371,29.06,106.0,94.0,18.9
2026-06-28T11:44:06.965302,-72.35375049990333,29.06,106.0,94.0,18.9
2026-06-28T11:44:06.967094,-24.250143406733063,29.06,106.0,94.0,18.9
2026-06-28T11:44:07.009773,-22.14494440656762,29.06,106.0,94.0,18.9
2026-06-28T11:44:07.011400,-79.28813266607393,29.06,106.0,94.0,18.9
2026-06-28T11:44:07.064179,-5.790952102271028,29.06,106.0,94.0,18.9
2026-06-28T11:44:07.066538,67.42066624401187,29.06,106.0,94.0,18.9
2026-06-28T11:44:07.104498,-43.16570600311181,29.06,106.0,94.0,18.9
2026-06-28T11:44:07.106147,-2.540589405125022,29.06,106.0,94.0,18.9
2026-06-28T11:44:07.107554,8.220913332799745,29.06,106.0,94.0,18.9
2026-06-28T11:44:07.154075,-33.45572441687533,29.06,106.0,94.0,18.9
2026-06-28T11:44:07.155692,-18.365584641884553,29.06,106.0,94.0,18.9
2026-06-28T11:44:07.211816,-18.370970262395705,29.06,106.0,94.0,18.9
2026-06-28T11:44:07.213539,-0.2021829990753825,29.06,106.0,94.0,18.9
2026-06-28T11:44:07.253917,-4.311574694315809,29.06,106.0,94.0,18.9
2026-06-28T11:44:07.255620,54.43738387575129,29.06,106.0,94.0,18.9
2026-06-28T11:44:07.313749,106.93695386465924,29.06,106.0,94.0,18.9
2026-06-28T11:44:07.315607,118.44191078826482,29.06,106.0,94.0,18.9
2026-06-28T11:44:07.354342,42.84949306505554,29.06,106.0,94.0,18.9
2026-06-28T11:44:07.356109,61.87542395245542,29.06,106.0,94.0,18.9
2026-06-28T11:44:07.357698,108.86058676854182,29.06,106.0,94.0,18.9
2026-06-28T11:44:07.397396,-9.54051525406257,29.06,106.0,94.0,18.9
2026-06-28T11:44:07.398979,-68.94203484902258,29.06,106.0,94.0,18.9
2026-06-28T11:44:07.453859,-43.520162083318354,29.06,106.0,94.0,18.9
2026-06-28T11:44:07.456001,31.495772956166284,29.06,106.0,94.0,18.9
2026-06-28T11:44:07.501694,-68.47053072787244,29.06,106.0,94.0,18.9
2026-06-28T11:44:07.504359,-14.63383043881164,29.06,106.0,94.0,18.9
2026-06-28T11:44:07.555968,99.54729447906193,29.06,106.0,93.9,18.9
2026-06-28T11:44:07.557887,-45.21368461106209,29.06,106.0,93.9,18.9
2026-06-28T11:44:07.596401,-44.24131251346729,29.06,106.0,93.9,18.9
2026-06-28T11:44:07.598075,-53.35263406142047,29.06,106.0,93.9,18.9
2026-06-28T11:44:07.672951,-45.397399454405466,29.06,106.0,93.9,18.9
2026-06-28T11:44:07.674799,-39.294049749433114,29.06,106.0,93.9,18.9
2026-06-28T11:44:07.694495,-66.15394888950127,29.06,106.0,93.9,18.9
2026-06-28T11:44:07.695806,27.690907039857535,29.06,106.0,93.9,18.9
2026-06-28T11:44:07.697021,21.16840394738312,29.06,106.0,93.9,18.9
2026-06-28T11:44:07.742263,-73.44440228346123,29.06,106.0,93.9,18.9
2026-06-28T11:44:07.743955,-27.824495991775887,29.06,106.0,93.9,18.9
2026-06-28T11:44:07.787825,59.12828062024964,29.06,106.0,93.9,18.9
2026-06-28T11:44:07.789719,47.84064088749712,29.06,106.0,93.9,18.9
2026-06-28T11:44:07.842423,73.78722026305053,29.06,106.0,93.9,18.9
2026-06-28T11:44:07.844129,86.79686004191329,29.06,106.0,93.9,18.9
2026-06-28T11:44:07.887056,92.5532502460652,29.06,106.0,93.9,18.9
2026-06-28T11:44:07.888634,32.117049300471066,29.06,106.0,93.9,18.9
2026-06-28T11:44:07.890226,54.7297447340123,29.06,106.0,93.9,18.9
2026-06-28T11:44:07.942532,97.90811553543742,29.06,106.0,93.9,18.9
2026-06-28T11:44:07.944310,0.9142415314234142,29.06,106.0,93.9,18.9
2026-06-28T11:44:07.986932,-81.04889177461285,29.06,106.0,93.9,18.9
2026-06-28T11:44:07.988507,-58.48195587300734,29.06,106.0,93.9,18.9
2026-06-28T11:44:08.032358,50.19110809669157,29.06,106.0,93.9,18.9
2026-06-28T11:44:08.052588,-5.363805567931139,29.06,106.0,93.9,18.9
2026-06-28T11:44:08.084566,-25.07773956003951,29.06,106.0,93.9,18.9
2026-06-28T11:44:08.086132,-14.698774304307676,29.06,106.0,93.9,18.9
2026-06-28T11:44:08.129154,-68.90732809196817,29.06,106.0,93.9,18.9
2026-06-28T11:44:08.131067,-80.47657252577086,29.06,106.0,93.9,18.9
2026-06-28T11:44:08.185611,-16.271808137224525,29.06,106.0,93.9,18.9
2026-06-28T11:44:08.187343,63.636069030304924,29.06,106.0,93.9,18.9
2026-06-28T11:44:08.188939,34.45680083149071,29.06,106.0,93.9,18.9
2026-06-28T11:44:08.231972,-20.375842409929874,29.06,106.0,93.9,18.9
2026-06-28T11:44:08.233592,-33.84745295768379,29.06,106.0,93.9,18.9
2026-06-28T11:44:08.274554,-22.671580937485807,29.06,106.0,93.9,18.9
2026-06-28T11:44:08.276031,-44.17545788337885,29.06,106.0,93.9,18.9
2026-06-28T11:44:08.331062,-71.45561934276019,29.06,106.0,93.9,18.9
2026-06-28T11:44:08.332807,-52.588417200150985,29.06,106.0,93.9,18.9
2026-06-28T11:44:08.375250,-4.219912427329215,29.06,106.0,93.9,18.9
2026-06-28T11:44:08.376850,37.35474439991606,29.06,106.0,93.9,18.9
2026-06-28T11:44:08.429745,99.76629646005343,29.06,106.0,93.9,18.9
2026-06-28T11:44:08.431637,75.60556525058655,29.06,106.0,93.9,18.9
2026-06-28T11:44:08.474587,-15.855210892272403,29.06,106.0,93.9,18.9
2026-06-28T11:44:08.476159,-20.341598772427496,29.06,106.0,93.9,18.9
2026-06-28T11:44:08.477743,-30.197694812151127,29.06,106.0,93.9,18.9
2026-06-28T11:44:08.519038,-26.429024174586047,29.06,106.0,93.9,18.9
2026-06-28T11:44:08.520671,-30.990624948743204,29.06,106.0,93.9,18.9
2026-06-28T11:44:08.574029,-16.026644034808363,29.06,106.0,93.9,18.9
2026-06-28T11:44:08.575753,-4.812370698904164,29.06,106.0,93.9,18.9
2026-06-28T11:44:08.615633,-41.54766898963079,29.06,106.0,93.9,18.9
2026-06-28T11:44:08.617573,-33.510267050449684,29.06,106.0,93.9,18.9
2026-06-28T11:44:08.668443,-18.874933713970123,29.06,106.0,93.9,18.9
2026-06-28T11:44:08.670329,-44.69724744805039,29.06,106.0,93.9,18.9
2026-06-28T11:44:08.714178,-8.932286200505938,29.06,106.0,93.9,18.9
2026-06-28T11:44:08.715695,2.6233936174060375,29.06,106.0,93.9,18.9
2026-06-28T11:44:08.717228,-32.85721822364457,29.06,106.0,93.9,18.9
2026-06-28T11:44:08.762925,39.46076300529063,29.06,106.0,93.9,18.9
2026-06-28T11:44:08.764588,3.262815624277028,29.06,106.0,93.9,18.9
2026-06-28T11:44:08.820829,-39.71765082545718,29.06,106.0,93.9,18.9
2026-06-28T11:44:08.822431,-13.062655899195978,29.06,106.0,93.9,18.9
2026-06-28T11:44:08.859944,-18.899219360274785,29.06,106.0,93.9,18.9
2026-06-28T11:44:08.861525,-31.58453677093247,29.06,106.0,93.9,18.9
2026-06-28T11:44:08.908253,-19.519579862620933,29.06,106.0,93.9,18.9
2026-06-28T11:44:08.910094,25.547361059831456,29.06,106.0,93.9,18.9
2026-06-28T11:44:08.959361,59.00190959860731,29.06,106.0,93.9,18.9
2026-06-28T11:44:08.979125,112.9625190431347,29.06,106.0,93.9,18.9
2026-06-28T11:44:09.005379,129.77409057047942,29.06,106.0,93.9,18.9
2026-06-28T11:44:09.063426,64.80355709125746,29.06,106.0,93.9,18.9
2026-06-28T11:44:09.064904,33.4734479252136,29.06,106.0,93.9,18.9
2026-06-28T11:44:09.066391,47.438302013220905,29.06,106.0,93.9,18.9
2026-06-28T11:44:09.067808,21.547581685871293,29.06,106.0,93.9,18.9
2026-06-28T11:44:09.107545,24.310614890123148,29.06,106.0,93.9,18.9
2026-06-28T11:44:09.109256,23.043550320950608,29.06,106.0,93.9,18.9
2026-06-28T11:44:09.152404,-7.425720393230746,29.06,106.0,93.9,18.9
2026-06-28T11:44:09.154085,-14.3628188536285,29.06,106.0,93.9,18.9
2026-06-28T11:44:09.208039,-14.525743052932466,29.06,106.0,93.9,18.9
2026-06-28T11:44:09.258359,-17.572434150538513,29.06,106.0,93.9,18.9
2026-06-28T11:44:09.260196,-36.40462473435427,29.06,106.0,93.9,18.9
2026-06-28T11:44:09.261638,-57.5039101808316,29.06,106.0,93.9,18.9
2026-06-28T11:44:09.306555,68.65862253348098,29.06,106.0,93.9,18.9
2026-06-28T11:44:09.308410,18.187237802988086,29.06,106.0,93.9,18.9
2026-06-28T11:44:09.310250,-136.9008032566289,29.06,106.0,93.9,18.9
2026-06-28T11:44:09.351828,2.8751734536648144,29.06,106.0,93.9,18.9
2026-06-28T11:44:09.355676,13.801166584378844,29.06,106.0,93.9,18.9
2026-06-28T11:44:09.397683,-46.299746995215706,29.06,106.0,93.9,18.9
2026-06-28T11:44:09.399251,-14.530564850440719,29.06,106.0,93.9,18.9
2026-06-28T11:44:09.444762,-11.594378602610858,29.06,106.0,93.9,18.9
2026-06-28T11:44:09.450091,-15.134514455957968,29.06,106.0,93.9,18.9
2026-06-28T11:44:09.497093,-14.719569847457123,29.06,106.0,93.9,18.9
2026-06-28T11:44:09.499002,5.714857802012407,29.06,106.0,93.9,18.9
2026-06-28T11:44:09.552453,74.8986495749454,29.06,106.0,93.9,18.9
2026-06-28T11:44:09.554224,102.89343287767898,29.06,106.0,93.9,18.9
2026-06-28T11:44:09.597730,65.41058836031917,29.06,106.0,93.9,18.9
2026-06-28T11:44:09.599390,56.78489209001439,29.06,106.0,93.9,18.9
2026-06-28T11:44:09.600882,35.503724825967595,29.06,106.0,93.9,18.9
2026-06-28T11:44:09.641196,31.45396324084954,29.06,106.0,93.9,18.9
2026-06-28T11:44:09.642869,6.1367397334981675,29.06,106.0,93.9,18.9
2026-06-28T11:44:09.703411,14.199692275178553,29.06,106.0,93.9,18.9
2026-06-28T11:44:09.705079,9.134539220482772,29.06,106.0,93.9,18.9
2026-06-28T11:44:09.741312,-22.337873676761234,29.06,106.0,93.9,18.9
2026-06-28T11:44:09.743165,-27.049607625736055,29.06,106.0,93.9,18.9
2026-06-28T11:44:09.787491,-34.23101606824251,29.06,106.0,93.9,18.9
2026-06-28T11:44:09.806748,-58.6002339321749,29.06,106.0,93.9,18.9
2026-06-28T11:44:09.841008,-77.04853669890817,29.06,106.0,93.9,18.9
2026-06-28T11:44:09.842591,-12.543083444802267,29.06,106.0,93.9,18.9
2026-06-28T11:44:09.843868,-8.450428996271393,29.06,106.0,93.9,18.9
2026-06-28T11:44:09.884088,-55.487358082708866,29.06,106.0,93.9,18.9
2026-06-28T11:44:09.885601,-58.8547858727181,29.06,106.0,93.9,18.9
2026-06-28T11:44:09.944746,3.290773311416852,29.06,106.0,93.9,18.9
2026-06-28T11:44:09.950212,4.245640938935448,29.06,106.0,93.9,18.9
2026-06-28T11:44:09.985845,-51.415687625701544,29.06,106.0,93.9,18.9
2026-06-28T11:44:10.030284,-39.85128152646629,29.06,106.0,93.9,18.9
2026-06-28T11:44:10.054447,-27.233656690878586,29.06,106.0,93.9,18.9
2026-06-28T11:44:10.091666,-54.48242932941743,29.06,106.0,93.9,18.9
2026-06-28T11:44:10.093395,-64.84807762991879,29.06,106.0,93.9,18.9
2026-06-28T11:44:10.095138,-14.85304884542622,29.06,106.0,93.9,18.9
2026-06-28T11:44:10.097361,-23.32339206565299,29.06,106.0,93.9,18.9
2026-06-28T11:44:10.128177,14.265789533180044,29.06,106.0,93.9,18.9
2026-06-28T11:44:10.129796,76.77078650463434,29.06,106.0,93.9,18.9
2026-06-28T11:44:10.176202,84.10166061218074,29.06,106.0,93.9,18.9
2026-06-28T11:44:10.230551,62.17882053374848,29.06,106.0,93.9,18.9
2026-06-28T11:44:10.232217,48.62641877820981,29.06,106.0,93.9,18.9
2026-06-28T11:44:10.233477,66.78892842919329,29.06,106.0,93.9,18.9
2026-06-28T11:44:10.274997,14.316224927853519,29.06,106.0,93.9,18.9
2026-06-28T11:44:10.276510,-16.288822727969702,29.06,106.0,93.9,18.9
2026-06-28T11:44:10.330719,-30.179372737759728,29.06,106.0,93.9,18.9
2026-06-28T11:44:10.332778,-7.712185839402704,29.06,106.0,94.0,18.9
2026-06-28T11:44:10.334737,-2.2148926434179543,29.06,106.0,94.0,18.9
2026-06-28T11:44:10.370523,-32.97940806614238,29.06,106.0,94.0,18.9
2026-06-28T11:44:10.422718,-25.73197493516141,29.06,106.0,94.0,18.9
2026-06-28T11:44:10.424517,0.6695313812005468,29.06,106.0,94.0,18.9
2026-06-28T11:44:10.443851,10.340053292391099,29.06,106.0,94.0,18.9
2026-06-28T11:44:10.519934,-22.03900116051617,29.06,106.0,94.0,18.9
2026-06-28T11:44:10.521603,30.74780092739421,29.06,106.0,94.0,18.9
2026-06-28T11:44:10.523086,-26.152732112028076,29.06,106.0,94.0,18.9
2026-06-28T11:44:10.524405,-36.09041533836435,29.06,106.0,94.0,18.9
2026-06-28T11:44:10.525828,64.2793569877378,29.06,106.0,94.0,18.9
2026-06-28T11:44:10.566212,13.562041827649665,29.06,106.0,94.0,18.9
2026-06-28T11:44:10.567778,3.2392287363248986,29.06,106.0,94.0,18.9
2026-06-28T11:44:10.618066,-18.276298472428607,29.06,106.0,94.0,18.9
2026-06-28T11:44:10.619760,-25.335724277347325,29.06,106.0,94.0,18.9
2026-06-28T11:44:10.663029,-3.5593338910527885,29.06,106.0,94.0,18.9
2026-06-28T11:44:10.681185,-38.17152787135299,29.06,106.0,94.0,18.9
2026-06-28T11:44:10.719029,-32.54782767972262,29.06,106.0,94.0,18.9
2026-06-28T11:44:10.720761,30.722197399717516,29.06,106.0,94.0,18.9
2026-06-28T11:44:10.767080,63.838762283159355,29.06,106.0,94.0,18.9
2026-06-28T11:44:10.768532,37.527999281855784,29.06,106.0,94.0,18.9
2026-06-28T11:44:10.818260,16.477806966180133,29.06,106.0,94.0,18.9
2026-06-28T11:44:10.819897,10.088255011074025,29.06,106.0,94.0,18.9
2026-06-28T11:44:10.863499,-10.020688689845427,29.06,106.0,94.0,18.9
2026-06-28T11:44:10.865379,-24.56016725271119,29.06,106.0,94.0,18.9
2026-06-28T11:44:10.866810,-2.1005838560948327,29.06,106.0,94.0,18.9
2026-06-28T11:44:10.907256,-12.600155761603624,29.06,106.0,94.0,18.9
2026-06-28T11:44:10.908864,-20.45913585614637,29.06,106.0,94.0,18.9
2026-06-28T11:44:10.958917,-4.896482690320738,29.06,106.0,94.0,18.9
2026-06-28T11:44:11.005911,12.414124145072126,29.06,106.0,94.0,18.9
2026-06-28T11:44:11.007443,-12.642750670014372,29.06,106.0,94.0,18.9
2026-06-28T11:44:11.008892,-10.933817667703048,29.06,106.0,94.0,18.9
2026-06-28T11:44:11.062091,33.3525242644399,29.06,106.0,94.0,18.9
2026-06-28T11:44:11.063806,-53.37024942575257,29.06,106.0,94.0,18.9
2026-06-28T11:44:11.102127,-45.20876404187197,29.06,106.0,94.0,18.9
2026-06-28T11:44:11.105720,36.428585234493525,29.06,106.0,94.0,18.9
2026-06-28T11:44:11.150188,17.63929149991712,29.06,106.0,94.0,18.9
2026-06-28T11:44:11.206510,3.4133344517490585,29.06,106.0,94.0,18.9
2026-06-28T11:44:11.208532,-0.7100332904798705,29.06,106.0,94.0,18.9
2026-06-28T11:44:11.210166,-3.5402884339775706,29.06,106.0,94.0,18.9
2026-06-28T11:44:11.228180,-0.13243662546847546,29.06,106.0,94.0,18.9
2026-06-28T11:44:11.258633,-3.747270813471882,29.06,106.0,94.0,18.9
2026-06-28T11:44:11.259983,-34.42161860645651,29.06,106.0,94.0,18.9
2026-06-28T11:44:11.297948,7.882957146069625,29.06,106.0,94.0,18.9
2026-06-28T11:44:11.315712,46.51573806294218,29.06,106.0,94.0,18.9
2026-06-28T11:44:11.346114,58.58723696150512,29.06,106.0,94.0,18.9
2026-06-28T11:44:11.396092,81.75676583824426,29.06,106.0,94.0,18.9
2026-06-28T11:44:11.397778,56.305446410078304,29.06,106.0,94.0,18.9
2026-06-28T11:44:11.399272,31.07930600432818,29.06,106.0,94.0,18.9
2026-06-28T11:44:11.400617,9.458919465977651,29.06,106.0,94.0,18.9
2026-06-28T11:44:11.451603,10.603538310063513,29.06,106.0,94.0,18.9
2026-06-28T11:44:11.453799,-9.257061951620997,29.06,106.0,94.0,18.9
2026-06-28T11:44:11.497216,-22.300553038470994,29.06,106.0,94.0,18.9
2026-06-28T11:44:11.498709,2.0144693723232328,29.06,106.0,94.0,18.9
2026-06-28T11:44:11.542764,-17.803390957591773,29.06,106.0,94.0,18.9
2026-06-28T11:44:11.544332,-34.17294348499306,29.06,106.0,94.0,18.9
2026-06-28T11:44:11.595906,-27.402077323886072,29.06,106.0,94.0,18.9
2026-06-28T11:44:11.597602,-20.120214699571136,29.06,106.0,94.0,18.9
2026-06-28T11:44:11.639817,-17.92519565762225,29.06,106.0,94.0,18.9
2026-06-28T11:44:11.641394,-40.78836338399589,29.06,106.0,94.0,18.9
2026-06-28T11:44:11.695387,-39.91443986038422,29.06,106.0,94.0,18.9
2026-06-28T11:44:11.697670,-34.27248775442512,29.06,106.0,94.0,18.9
2026-06-28T11:44:11.704795,-38.13199807478187,29.06,106.0,94.0,18.9
2026-06-28T11:44:11.747655,-1.0869210915837666,29.06,106.0,94.0,18.9
2026-06-28T11:44:11.749244,1.2759307237264057,29.06,106.0,94.0,18.9
2026-06-28T11:44:11.785614,19.897912740673853,29.06,106.0,94.0,18.9
2026-06-28T11:44:11.787066,17.961328681220753,29.06,106.0,94.0,18.9
2026-06-28T11:44:11.840150,-28.605424216763357,29.06,106.0,94.0,18.9
2026-06-28T11:44:11.842148,-11.014156192014264,29.06,106.0,94.0,18.9
2026-06-28T11:44:11.886644,-26.53570670316283,29.06,106.0,94.0,18.9
2026-06-28T11:44:11.888325,-29.207489691047147,29.06,106.0,94.0,18.9
2026-06-28T11:44:11.933945,16.52767387587632,29.06,106.0,94.0,18.9
2026-06-28T11:44:11.935658,88.18589610865406,29.06,106.0,94.0,18.9
2026-06-28T11:44:11.937030,69.76836508384346,29.06,106.0,94.0,18.9
2026-06-28T11:44:11.980444,36.00933239319589,29.06,106.0,94.0,18.9
2026-06-28T11:44:11.981887,61.80372513865968,29.06,106.0,94.0,18.9
2026-06-28T11:44:12.029811,-2.1988651809782276,29.06,106.0,94.0,18.9
2026-06-28T11:44:12.049797,-24.33329852356426,29.06,106.0,94.0,18.9
2026-06-28T11:44:12.084786,-15.455942554869447,29.06,106.0,94.0,18.9
2026-06-28T11:44:12.086510,9.485621765304927,29.06,106.0,94.0,18.9
2026-06-28T11:44:12.144410,2.3238817484410705,29.06,106.0,94.0,18.9
2026-06-28T11:44:12.147351,-16.788057151908816,29.06,106.0,94.0,18.9
2026-06-28T11:44:12.207865,9.589083601726287,29.06,106.0,94.0,18.9
2026-06-28T11:44:12.211006,-37.342169753516515,29.06,106.0,94.0,18.9
2026-06-28T11:44:12.238714,-28.555063741369956,29.06,106.0,94.0,18.9
2026-06-28T11:44:12.240154,-3.828647283249672,29.06,106.0,94.0,18.9
2026-06-28T11:44:12.241499,-68.49544799938963,29.06,106.0,94.0,18.9
2026-06-28T11:44:12.275420,102.63319980287784,29.06,106.0,94.0,18.9
2026-06-28T11:44:12.276838,73.88015779789744,29.06,106.0,94.0,18.9
2026-06-28T11:44:12.329274,-137.44607947657533,29.06,106.0,94.0,18.9
2026-06-28T11:44:12.331269,23.07005982577023,29.06,106.0,94.0,18.9
2026-06-28T11:44:12.378720,-22.67997230795418,29.06,106.0,94.0,18.9
2026-06-28T11:44:12.380713,-98.26175454506708,29.06,106.0,94.0,18.9
2026-06-28T11:44:12.429353,-32.78135884124685,29.06,106.0,94.0,18.9
2026-06-28T11:44:12.431036,-56.09800670392765,29.06,106.0,94.0,18.9
2026-06-28T11:44:12.473399,-64.23458095747291,29.06,106.0,94.0,18.9
2026-06-28T11:44:12.475015,-40.91048665359534,29.06,106.0,94.0,18.9
2026-06-28T11:44:12.476624,31.67439694992825,29.06,106.0,94.0,18.9
2026-06-28T11:44:12.517890,67.08930422920963,29.06,106.0,94.0,18.9
2026-06-28T11:44:12.519333,92.35642186371606,29.06,106.0,94.0,18.9
2026-06-28T11:44:12.578084,88.8485783584427,29.06,106.0,94.0,18.9
2026-06-28T11:44:12.580095,50.61365004669467,29.06,106.0,94.0,18.9
2026-06-28T11:44:12.616324,24.53768247813814,29.06,106.0,94.0,18.9
2026-06-28T11:44:12.618017,23.26306902029676,29.06,106.0,94.0,18.9
2026-06-28T11:44:12.661415,15.002056343845624,29.06,106.0,94.0,18.9
2026-06-28T11:44:12.663033,-7.89218003592258,29.12,106.0,94.0,18.9
2026-06-28T11:44:12.718275,15.772936131865704,29.12,106.0,94.0,18.9
2026-06-28T11:44:12.719916,24.299532377807317,29.12,106.0,94.0,18.9
2026-06-28T11:44:12.759831,15.796318169109146,29.12,106.0,94.0,18.9
2026-06-28T11:44:12.761142,-28.514915859423127,29.12,106.0,94.0,18.9
2026-06-28T11:44:12.762315,-44.063291488283944,29.12,106.0,94.0,18.9
2026-06-28T11:44:12.817365,1.1592253723119814,29.12,106.0,94.0,18.9
2026-06-28T11:44:12.819055,-24.495302141367738,29.12,106.0,94.0,18.9
2026-06-28T11:44:12.862038,-38.011200522867654,29.12,106.0,94.0,18.9
2026-06-28T11:44:12.863735,-37.09137319438745,29.12,106.0,94.0,18.9
2026-06-28T11:44:12.905588,20.416505815771153,29.12,106.0,94.0,18.9
2026-06-28T11:44:12.907098,18.279322785345517,29.12,106.0,94.0,18.9
2026-06-28T11:44:12.961472,-41.055104405361305,29.12,106.0,94.0,18.9
2026-06-28T11:44:12.962969,-9.716671355046515,29.12,106.0,94.0,18.9
2026-06-28T11:44:13.006214,-26.42215035930408,29.12,106.0,94.0,18.9
2026-06-28T11:44:13.007982,-20.668187766305614,29.12,106.0,94.0,18.9
2026-06-28T11:44:13.052930,-20.416955356880884,29.12,106.0,94.0,18.9
2026-06-28T11:44:13.071939,-43.865525090658984,29.12,106.0,94.0,18.9
2026-06-28T11:44:13.106576,-14.095248186411096,29.12,106.0,94.0,18.9
2026-06-28T11:44:13.108042,28.84268882006378,29.12,106.0,94.0,18.9
2026-06-28T11:44:13.151285,95.08588586932038,29.12,106.0,94.0,18.9
2026-06-28T11:44:13.152831,95.06246643385798,29.12,106.0,94.0,18.9
2026-06-28T11:44:13.154453,59.626543785209385,29.12,106.0,94.0,18.9
2026-06-28T11:44:13.206827,47.05241350605526,29.12,106.0,94.0,18.9
2026-06-28T11:44:13.208590,24.901450197363545,29.12,106.0,94.0,18.9
2026-06-28T11:44:13.250227,8.22398925269514,29.12,106.0,94.0,18.9
2026-06-28T11:44:13.251687,0.45917268949901313,29.12,106.0,94.0,18.9
2026-06-28T11:44:13.296239,26.07399843270276,29.12,106.0,94.0,18.9
2026-06-28T11:44:13.315850,6.6536074987677285,29.12,106.0,94.0,18.9
2026-06-28T11:44:13.344612,-0.019321813718983893,29.12,106.0,94.0,18.9
2026-06-28T11:44:13.346047,10.48902028826749,29.12,106.0,94.0,18.9
2026-06-28T11:44:13.396330,-29.313556968254606,29.12,106.0,94.0,18.9
2026-06-28T11:44:13.398343,-34.85111179834782,29.12,106.0,94.0,18.9
2026-06-28T11:44:13.450489,-40.93684521270695,29.12,106.0,94.0,18.9
2026-06-28T11:44:13.452373,-86.07407737661069,29.12,106.0,94.0,18.9
2026-06-28T11:44:13.495380,-63.00063719118213,29.12,106.0,94.0,18.9
2026-06-28T11:44:13.541519,31.330604455635058,29.12,106.0,94.0,18.9
2026-06-28T11:44:13.543007,12.037950904999148,29.12,106.0,94.0,18.9
2026-06-28T11:44:13.561240,-41.43449176473529,29.12,106.0,94.0,18.9
2026-06-28T11:44:13.562961,-49.500951097138596,29.12,106.0,94.0,18.9
2026-06-28T11:44:13.593168,-63.22709509498801,29.12,106.0,94.0,18.9
2026-06-28T11:44:13.594710,-48.712837861278416,29.12,106.0,94.0,18.9
2026-06-28T11:44:13.640944,-44.805700858328805,29.12,106.0,94.0,18.9
2026-06-28T11:44:13.643032,-51.107870225701205,29.12,106.0,94.0,18.9
2026-06-28T11:44:13.685254,-7.036787651231915,29.12,106.0,94.0,18.9
2026-06-28T11:44:13.686988,33.3734056400265,29.12,106.0,94.0,18.9
2026-06-28T11:44:13.734578,68.47018262418123,29.12,106.0,94.0,18.9
2026-06-28T11:44:13.736830,96.56586067026768,29.12,106.0,94.0,18.9
2026-06-28T11:44:13.784695,84.3080063531359,29.12,106.0,94.0,18.9
2026-06-28T11:44:13.786637,43.69229076526242,29.12,106.0,94.0,18.9
2026-06-28T11:44:13.839234,16.73468850535705,29.12,106.0,94.0,18.9
2026-06-28T11:44:13.840934,6.2361335606243316,29.12,106.0,94.0,18.9
2026-06-28T11:44:13.885402,-13.490984068446586,29.12,106.0,94.0,18.9
2026-06-28T11:44:13.887084,-12.834092145692814,29.12,106.0,94.0,18.9
2026-06-28T11:44:13.888541,-13.494717910363395,29.12,106.0,94.0,18.9
2026-06-28T11:44:13.929692,8.68749982254872,29.12,106.0,93.9,18.9
2026-06-28T11:44:13.952995,-25.345392537279224,29.12,106.0,93.9,18.9
2026-06-28T11:44:13.979548,-32.44135608554046,29.12,106.0,93.9,18.9
2026-06-28T11:44:13.980839,-2.996805103565248,29.12,106.0,93.9,18.9
2026-06-28T11:44:14.030176,-40.65421896780446,29.12,106.0,93.9,18.9
2026-06-28T11:44:14.032041,-14.289942032073336,29.12,106.0,93.9,18.9
2026-06-28T11:44:14.076846,44.49337657896225,29.12,106.0,93.9,18.9
2026-06-28T11:44:14.135447,48.01265261546062,29.12,106.0,93.9,18.9
2026-06-28T11:44:14.137018,3.4609218639672523,29.12,106.0,93.9,18.9
2026-06-28T11:44:14.138523,-5.850040455836977,29.12,106.0,93.9,18.9
2026-06-28T11:44:14.183283,-2.1352251234846022,29.12,106.0,93.9,18.9
2026-06-28T11:44:14.184995,-11.303481674380832,29.12,106.0,93.9,18.9
2026-06-28T11:44:14.228874,-73.32473418992272,29.12,106.0,93.9,18.9
2026-06-28T11:44:14.230517,-51.06290367182538,29.12,106.0,93.9,18.9
2026-06-28T11:44:14.231898,58.058670164627635,29.12,106.0,93.9,18.9
2026-06-28T11:44:14.273706,36.91468498941014,29.12,106.0,93.9,18.9
2026-06-28T11:44:14.322768,79.03968002741635,29.12,106.0,93.9,18.9
2026-06-28T11:44:14.324208,117.96069354592593,29.12,106.0,93.9,18.9
2026-06-28T11:44:14.325544,95.3308488357457,29.12,106.0,93.9,18.9
2026-06-28T11:44:14.372950,63.81242354783802,29.12,106.0,93.9,18.9
2026-06-28T11:44:14.374712,81.650659228918,29.12,106.0,93.9,18.9
2026-06-28T11:44:14.421147,117.49689573962803,29.12,106.0,93.9,18.9
2026-06-28T11:44:14.422923,11.74992228362558,29.12,106.0,93.9,18.9
2026-06-28T11:44:14.472225,2.389840571264063,29.12,106.0,93.9,18.9
2026-06-28T11:44:14.474008,-27.585101751943867,29.12,106.0,93.9,18.9
2026-06-28T11:44:14.513843,-96.34400709986858,29.12,106.0,93.9,18.9
2026-06-28T11:44:14.515909,-101.93353082002679,29.12,106.0,93.9,18.9
2026-06-28T11:44:14.563556,-68.30335422547785,29.12,106.0,93.9,18.9
2026-06-28T11:44:14.585027,2.070563009327465,29.12,106.0,93.9,18.9
2026-06-28T11:44:14.613653,-45.336495381937226,29.12,106.0,93.9,18.9
2026-06-28T11:44:14.614997,-103.0053413082826,29.12,106.0,93.9,18.9
2026-06-28T11:44:14.616093,-30.98816728305872,29.12,106.0,93.9,18.9
2026-06-28T11:44:14.662425,75.0661054725243,29.12,106.0,93.9,18.9
2026-06-28T11:44:14.663950,-47.16901249285493,29.12,106.0,93.9,18.9
2026-06-28T11:44:14.713324,-25.337170248711928,29.12,106.0,93.9,18.9
2026-06-28T11:44:14.714813,107.31511253211686,29.12,106.0,93.9,18.9
2026-06-28T11:44:14.761112,-28.603073576152518,29.12,106.0,93.9,18.9
2026-06-28T11:44:14.762800,-38.307857674786604,29.12,106.0,93.9,18.9
2026-06-28T11:44:14.806956,-8.772349499291623,29.12,106.0,93.9,18.9
2026-06-28T11:44:14.808744,-70.6971438815434,29.12,106.0,93.9,18.9
2026-06-28T11:44:14.862546,-6.144635250362633,29.12,106.0,93.9,18.9
2026-06-28T11:44:14.864391,42.82472524928867,29.12,106.0,93.9,18.9
2026-06-28T11:44:14.907779,61.33594542009895,29.12,106.0,93.9,18.9
2026-06-28T11:44:14.926403,29.40911282275986,29.12,106.0,93.9,18.9
2026-06-28T11:44:14.962753,-11.828464012858273,29.12,106.0,93.9,18.9
2026-06-28T11:44:14.964303,-13.956682805443188,29.12,106.0,93.9,18.9
2026-06-28T11:44:14.965742,-59.514041312613,29.12,106.0,93.9,18.9
2026-06-28T11:44:15.006405,-28.0467445737182,29.12,106.0,93.9,18.9
2026-06-28T11:44:15.008078,-42.52183620659021,29.12,106.0,93.9,18.9
2026-06-28T11:44:15.052467,-43.092870934925685,29.12,106.0,93.9,18.9
2026-06-28T11:44:15.054090,-43.26189325056704,29.12,106.0,93.9,18.9
2026-06-28T11:44:15.105539,-55.33964952769634,29.12,106.0,93.9,18.9
2026-06-28T11:44:15.106996,-15.568984479981285,29.12,106.0,93.9,18.9
2026-06-28T11:44:15.150475,-48.5053869102543,29.12,106.0,93.9,18.9
2026-06-28T11:44:15.152170,-64.01503189130305,29.12,106.0,93.9,18.9
2026-06-28T11:44:15.206124,-42.401290142484896,29.12,106.0,93.9,18.9
2026-06-28T11:44:15.207681,2.5748223693369576,29.12,106.0,93.9,18.9
2026-06-28T11:44:15.250144,-50.98362002893805,29.12,106.0,93.9,18.9
2026-06-28T11:44:15.251761,93.10737990573833,29.12,106.0,93.9,18.9
2026-06-28T11:44:15.298582,139.99904333857006,29.12,106.0,93.9,18.9
2026-06-28T11:44:15.300075,-112.07772937321997,29.12,106.0,93.9,18.9
2026-06-28T11:44:15.343657,-36.256032307146356,29.12,106.0,93.9,18.9
2026-06-28T11:44:15.345157,18.56464852733346,29.12,106.0,93.9,18.9
2026-06-28T11:44:15.346598,11.368083083667095,29.12,106.0,93.8,18.9
2026-06-28T11:44:15.407958,14.079158652691582,29.12,106.0,93.8,18.9
2026-06-28T11:44:15.410783,-30.685151701111334,29.12,106.0,93.8,18.9
2026-06-28T11:44:15.453014,-2.093119504449893,29.12,106.0,93.8,18.9
2026-06-28T11:44:15.454666,-22.384295172283714,29.12,106.0,93.8,18.9
2026-06-28T11:44:15.494058,5.929551734764773,29.12,106.0,93.8,18.9
2026-06-28T11:44:15.495460,89.12970441218489,29.12,106.0,93.8,18.9
2026-06-28T11:44:15.539441,106.16671352858786,29.12,106.0,93.8,18.9
2026-06-28T11:44:15.540919,53.412678043059444,29.12,106.0,93.8,18.9
2026-06-28T11:44:15.595204,28.342273813344182,29.12,106.0,93.8,18.9
2026-06-28T11:44:15.596878,32.86556136207184,29.12,106.0,93.8,18.9
2026-06-28T11:44:15.639035,-5.646954573341965,29.12,106.0,93.8,18.9
2026-06-28T11:44:15.640551,-54.360119035853984,29.12,106.0,93.8,18.9
2026-06-28T11:44:15.684810,-1.5824118031491192,29.12,106.0,93.8,18.9
2026-06-28T11:44:15.686543,21.052364164149488,29.12,106.0,93.8,18.9
2026-06-28T11:44:15.703856,-4.460498062160358,29.12,106.0,93.8,18.9
2026-06-28T11:44:15.741333,27.586421905087143,29.12,106.0,93.8,18.9
2026-06-28T11:44:15.742806,28.756741049251488,29.12,106.0,93.8,18.9
2026-06-28T11:44:15.785427,39.36560956402939,29.12,106.0,93.8,18.9
2026-06-28T11:44:15.787056,-17.82355251001154,29.12,106.0,93.8,18.9
2026-06-28T11:44:15.838787,-32.61766052147632,29.12,106.0,93.8,18.9
2026-06-28T11:44:15.840206,44.06928592340927,29.12,106.0,93.9,18.9
2026-06-28T11:44:15.883559,28.00459420677117,29.12,106.0,93.9,18.9
2026-06-28T11:44:15.884977,-69.62713401035188,29.12,106.0,93.9,18.9
2026-06-28T11:44:15.929662,104.33410175161433,29.12,106.0,93.9,18.9
2026-06-28T11:44:15.931471,138.77353243185917,29.12,106.0,93.9,18.9
2026-06-28T11:44:15.984279,-139.94616327658608,29.12,106.0,93.9,18.9
2026-06-28T11:44:15.986127,-27.895814049732646,29.12,106.0,93.9,18.9
2026-06-28T11:44:16.029950,13.383361161417646,29.12,106.0,93.9,18.9
2026-06-28T11:44:16.031598,-61.077989024272995,29.12,106.0,93.9,18.9
2026-06-28T11:44:16.084166,-44.42392424562335,29.12,106.0,93.9,18.9
2026-06-28T11:44:16.085582,-64.72574496771793,29.12,106.0,93.9,18.9
2026-06-28T11:44:16.086906,-69.3824497694601,29.12,106.0,93.9,18.9
2026-06-28T11:44:16.129783,-37.23614366689036,29.12,106.0,93.9,18.9
2026-06-28T11:44:16.131337,47.030801265564705,29.12,106.0,93.9,18.9
2026-06-28T11:44:16.172864,96.97955129486284,29.12,106.0,93.9,18.9
2026-06-28T11:44:16.174491,94.83073385315032,29.12,106.0,93.9,18.9
2026-06-28T11:44:16.229807,43.30190811907733,29.12,106.0,93.9,18.9
2026-06-28T11:44:16.231310,46.2781845371106,29.12,106.0,94.0,18.9
2026-06-28T11:44:16.269607,29.627238102553044,29.12,106.0,94.0,18.9
2026-06-28T11:44:16.270979,2.6101084359433955,29.12,106.0,94.0,18.9
2026-06-28T11:44:16.319109,14.809354012400302,29.12,106.0,94.0,18.9
2026-06-28T11:44:16.337753,6.345684818968799,29.12,106.0,94.0,18.9
2026-06-28T11:44:16.372455,-4.420571570271791,29.12,106.0,94.0,18.9
2026-06-28T11:44:16.374008,-25.785669249893253,29.12,106.0,94.0,18.9
2026-06-28T11:44:16.375425,-29.289514282305575,29.12,106.0,94.0,18.9
2026-06-28T11:44:16.416786,-28.507722691930965,29.12,106.0,94.0,18.9
2026-06-28T11:44:16.473298,-37.40591611531974,29.12,106.0,94.0,18.9
2026-06-28T11:44:16.475035,-15.174371616934762,29.12,106.0,94.0,18.9
2026-06-28T11:44:16.476790,-12.977249002046138,29.12,106.0,94.0,18.9
2026-06-28T11:44:16.517958,-10.79260668970931,29.12,106.0,94.0,18.9
2026-06-28T11:44:16.520088,-0.683763622820571,29.12,106.0,94.0,18.9
2026-06-28T11:44:16.562194,-55.38901979675684,29.12,106.0,94.0,18.9
2026-06-28T11:44:16.564001,27.98999265964411,29.12,106.0,94.0,18.9
2026-06-28T11:44:16.617207,32.93694115112376,29.12,106.0,94.0,18.9
2026-06-28T11:44:16.666422,-97.91229308704685,29.12,106.0,94.0,18.9
2026-06-28T11:44:16.668822,-20.455681986965292,29.12,106.0,94.1,18.9
2026-06-28T11:44:16.670581,-47.324610675726646,29.12,106.0,94.1,18.9
2026-06-28T11:44:16.718333,-74.9173968221945,29.12,106.0,94.1,18.9
2026-06-28T11:44:16.720121,13.944623593708037,29.12,106.0,94.1,18.9
2026-06-28T11:44:16.763268,-46.23077155269209,29.12,106.0,94.1,18.9
2026-06-28T11:44:16.765120,-62.04658720126949,29.12,106.0,94.1,18.9
2026-06-28T11:44:16.766618,26.100640060123055,29.12,106.0,94.1,18.9
2026-06-28T11:44:16.806398,69.53926909301386,29.12,106.0,94.1,18.9
2026-06-28T11:44:16.808024,92.92938792353291,29.12,106.0,94.1,18.9
2026-06-28T11:44:16.861990,96.99935651152775,29.12,106.0,94.1,18.9
2026-06-28T11:44:16.863464,87.98457255669638,29.12,106.0,94.1,18.9
2026-06-28T11:44:16.907632,35.93442548796456,29.12,106.0,94.1,18.9
2026-06-28T11:44:16.909659,-2.0274834056086277,29.12,106.0,94.1,18.9
2026-06-28T11:44:16.952689,22.653321485780836,29.12,106.0,94.1,18.9
2026-06-28T11:44:16.972661,0.8612219693309768,29.12,106.0,94.1,18.9
2026-06-28T11:44:17.002723,-18.94379901782333,29.12,106.0,94.1,18.9
2026-06-28T11:44:17.004089,-43.263528050641504,29.12,106.0,94.1,18.9
2026-06-28T11:44:17.050158,-34.90637688725768,29.12,106.0,94.1,18.9
2026-06-28T11:44:17.051647,-31.922189587100434,29.12,106.0,94.1,18.9
2026-06-28T11:44:17.106821,-48.99854323690924,29.12,106.0,94.1,18.9
2026-06-28T11:44:17.108450,-2.676556964521339,29.12,106.0,94.1,18.9
2026-06-28T11:44:17.110235,-48.7625582586679,29.12,106.0,94.1,18.9
2026-06-28T11:44:17.152179,-68.09335493671863,29.12,106.0,94.1,18.9
2026-06-28T11:44:17.153984,-13.984196537926135,29.12,106.0,94.1,18.9
2026-06-28T11:44:17.200643,-9.349325283850343,29.12,106.0,94.1,18.9
2026-06-28T11:44:17.202011,-65.26918017727752,29.12,106.0,94.1,18.9
2026-06-28T11:44:17.245013,-57.97770429311328,29.12,106.0,94.1,18.9
2026-06-28T11:44:17.246491,34.116879261406666,29.12,106.0,94.1,18.9
2026-06-28T11:44:17.294347,10.658847998519663,29.12,106.0,94.1,18.9
2026-06-28T11:44:17.295789,-8.129991289888455,29.12,106.0,94.1,18.9
2026-06-28T11:44:17.342817,-4.110392541911267,29.12,106.0,94.1,18.9
2026-06-28T11:44:17.344413,-13.999594440743033,29.12,106.0,94.1,18.9
2026-06-28T11:44:17.399793,-25.095474412137342,29.12,106.0,94.1,18.9
2026-06-28T11:44:17.401565,-23.727238726191185,29.12,106.0,94.1,18.9
2026-06-28T11:44:17.440018,15.28747660280887,29.12,106.0,94.1,18.9
2026-06-28T11:44:17.441913,34.28685689200234,29.12,106.0,94.1,18.9
2026-06-28T11:44:17.496930,55.682927634133975,29.12,106.0,94.1,18.9
2026-06-28T11:44:17.499108,93.45063460961221,29.12,106.0,94.1,18.9
2026-06-28T11:44:17.539001,128.40656452776207,29.12,106.0,94.1,18.9
2026-06-28T11:44:17.586602,73.86497162812957,29.12,106.0,94.1,18.9
2026-06-28T11:44:17.604722,32.15617986108775,29.12,106.0,94.1,18.9
2026-06-28T11:44:17.606191,38.748291025044054,29.12,106.0,94.1,18.9
2026-06-28T11:44:17.607490,43.62483192126225,29.12,106.0,94.1,18.9
2026-06-28T11:44:17.639232,30.34091514224005,29.12,106.0,94.1,18.9
2026-06-28T11:44:17.640548,5.038615461776294,29.12,106.0,94.1,18.9
2026-06-28T11:44:17.684029,15.952168909748917,29.12,106.0,94.1,18.9
2026-06-28T11:44:17.685927,-28.09957092358515,29.12,106.0,94.1,18.9
2026-06-28T11:44:17.740146,-25.865183347274083,29.12,106.0,94.1,18.9
2026-06-28T11:44:17.742154,-17.17959051926948,29.12,106.0,94.1,18.9
2026-06-28T11:44:17.790071,-20.980947563854834,29.12,106.0,94.1,18.9
2026-06-28T11:44:17.791384,-10.804781351274324,29.12,106.0,94.1,18.9
2026-06-28T11:44:17.832519,-22.25383356515811,29.12,106.0,94.1,18.9
2026-06-28T11:44:17.834035,-60.19092854325122,29.12,106.0,94.1,18.9
2026-06-28T11:44:17.853791,-51.64871751937523,29.12,106.0,94.1,18.9
2026-06-28T11:44:17.881578,47.8066903279419,29.12,106.0,94.1,18.9
2026-06-28T11:44:17.883552,16.08667267227409,29.12,106.0,94.1,18.9
2026-06-28T11:44:17.930041,0.8461384302827177,29.12,106.0,94.1,18.9
2026-06-28T11:44:17.932038,-6.131356510614943,29.12,106.0,94.1,18.9
2026-06-28T11:44:18.003693,-10.971734798570683,29.12,106.0,94.1,18.9
2026-06-28T11:44:18.006480,16.711707089955905,29.12,106.0,94.1,18.9
2026-06-28T11:44:18.029173,-45.75965963415789,29.12,106.0,94.1,18.9
2026-06-28T11:44:18.030774,-41.795811192436766,29.12,106.0,94.1,18.9
2026-06-28T11:44:18.074439,-26.371477637389063,29.12,106.0,94.1,18.9
2026-06-28T11:44:18.075868,-5.746337885237122,29.12,106.0,94.1,18.9
2026-06-28T11:44:18.123610,66.11298018822012,29.12,106.0,94.1,18.9
2026-06-28T11:44:18.125991,63.57647455737302,29.12,106.0,94.1,18.9
2026-06-28T11:44:18.172609,26.78410067180429,29.12,106.0,94.1,18.9
2026-06-28T11:44:18.174254,3.6621773642803794,29.12,106.0,94.1,18.9
2026-06-28T11:44:18.175665,-6.214084058912345,29.12,106.0,94.1,18.9
2026-06-28T11:44:18.222679,-13.364702030925134,29.12,106.0,94.1,18.9
2026-06-28T11:44:18.224193,-27.29730923814585,29.12,106.0,94.1,18.9
2026-06-28T11:44:18.271635,-28.795445022903138,29.12,106.0,94.1,18.9
2026-06-28T11:44:18.273110,-23.985685743154583,29.12,106.0,94.1,18.9
2026-06-28T11:44:18.317744,-19.281461290862495,29.12,106.0,94.1,18.9
2026-06-28T11:44:18.319318,-36.875986511668025,29.12,106.0,94.1,18.9
2026-06-28T11:44:18.373443,-29.794731302487534,29.12,106.0,94.1,18.9
2026-06-28T11:44:18.375304,-30.5258428667269,29.12,106.0,94.1,18.9
2026-06-28T11:44:18.414522,-6.61433062489867,29.12,106.0,94.1,18.9
2026-06-28T11:44:18.416169,1.8316982474326657,29.12,106.0,94.1,18.9
2026-06-28T11:44:18.464377,-83.10901228229913,29.12,106.0,94.1,18.9
2026-06-28T11:44:18.483323,59.24345959475072,29.12,106.0,94.1,18.9
2026-06-28T11:44:18.517107,125.49124565399597,29.12,106.0,94.1,18.9
2026-06-28T11:44:18.518607,-34.88279625140495,29.12,106.0,94.1,18.9
2026-06-28T11:44:18.562119,-6.436420815381425,29.12,106.0,94.1,18.9
2026-06-28T11:44:18.563648,14.571296808733475,29.12,106.0,94.1,18.9
2026-06-28T11:44:18.565013,-11.576202982297445,29.12,106.0,94.1,18.9
2026-06-28T11:44:18.609984,-7.669307959013656,29.12,106.0,94.1,18.9
2026-06-28T11:44:18.611642,5.2587018200764835,29.12,106.0,94.1,18.9
2026-06-28T11:44:18.662231,-43.39407301037277,29.12,106.0,94.1,18.9
2026-06-28T11:44:18.720023,-39.138955833591126,29.12,106.0,94.1,18.9
2026-06-28T11:44:18.721992,26.677393610559605,29.12,106.0,94.1,18.9
2026-06-28T11:44:18.723582,50.95930524678803,29.12,106.0,94.1,18.9
2026-06-28T11:44:18.756335,80.336900239696,29.12,106.0,94.1,18.9
2026-06-28T11:44:18.758102,55.969592052009496,29.12,106.0,94.1,18.9
2026-06-28T11:44:18.817328,51.39453765352818,29.12,106.0,94.1,18.9
2026-06-28T11:44:18.819807,-8.13727994145722,29.12,106.0,94.1,18.9
2026-06-28T11:44:18.862565,-40.49173881509967,29.12,106.0,94.1,18.9
2026-06-28T11:44:18.864092,-11.922926987003049,29.12,106.0,94.1,18.9
2026-06-28T11:44:18.905644,2.760929402613815,29.12,106.0,94.1,18.9
2026-06-28T11:44:18.907271,-8.206803098464302,29.12,106.0,94.1,18.9
2026-06-28T11:44:18.908644,-19.98464741613735,29.12,106.0,94.1,18.9
2026-06-28T11:44:18.951215,1.2123180578994268,29.12,106.0,94.1,18.9
2026-06-28T11:44:18.968740,-41.77548660981305,29.12,106.0,94.1,18.9
2026-06-28T11:44:19.008643,-54.67064614056824,29.12,106.0,94.1,18.9
2026-06-28T11:44:19.051615,-8.582813882409553,29.12,106.0,94.1,18.9
2026-06-28T11:44:19.053443,21.33985162423229,29.12,106.0,94.1,18.9
2026-06-28T11:44:19.054939,-73.16211131317837,29.12,106.0,94.1,18.9
2026-06-28T11:44:19.105784,-18.419055017928898,29.12,106.0,94.1,18.9
2026-06-28T11:44:19.107398,111.72445948458368,29.12,106.0,94.1,18.9
2026-06-28T11:44:19.149362,13.286240027917227,29.12,106.0,94.1,18.9
2026-06-28T11:44:19.150995,-15.794364777562826,29.12,106.0,94.1,18.9
2026-06-28T11:44:19.194812,-23.463348390338012,29.12,106.0,94.1,18.9
2026-06-28T11:44:19.295365,-24.938390474872087,29.12,106.0,94.1,18.9
2026-06-28T11:44:19.297146,-21.49696155491685,29.12,106.0,94.1,18.9
2026-06-28T11:44:19.298772,-31.823290615049856,29.12,106.0,94.1,18.9
2026-06-28T11:44:19.300305,-44.02402082172759,29.12,106.0,94.1,18.9
2026-06-28T11:44:19.301888,-27.5775026609504,29.12,106.0,94.1,18.9
