Timestamp,ECG,Temp,BPM,SpO2,RR
2026-06-28T10:19:27.881203,14.3,27.0,185.8,93.4,30.9
2026-06-28T10:19:27.892021,16.62,27.0,185.8,93.4,30.9
2026-06-28T10:19:27.925771,13.72,27.0,185.8,93.4,30.9
2026-06-28T10:19:27.929074,8.26,27.0,185.8,93.4,30.9
2026-06-28T10:19:27.967836,9.86,27.0,185.8,93.4,30.9
2026-06-28T10:19:27.971245,10.81,27.0,185.8,93.4,30.9
2026-06-28T10:19:27.974159,11.78,27.0,185.8,93.4,30.9
2026-06-28T10:19:28.054046,3.71,27.0,185.8,93.4,30.9
2026-06-28T10:19:28.060527,10.68,27.0,185.8,93.4,30.9
2026-06-28T10:19:28.066439,4.43,27.0,185.8,93.4,30.9
2026-06-28T10:19:28.113116,3.06,27.0,185.8,93.4,30.9
2026-06-28T10:19:28.116066,1.13,27.0,185.8,93.4,30.9
2026-06-28T10:19:28.118808,0.92,27.0,185.8,93.4,30.9
2026-06-28T10:19:28.165315,0.67,27.0,185.8,93.4,30.9
2026-06-28T10:19:28.168398,-3.36,27.0,185.8,93.4,30.9
2026-06-28T10:19:28.211515,2.74,27.0,185.8,93.4,30.9
2026-06-28T10:19:28.216512,-9.16,27.0,185.8,93.4,30.9
2026-06-28T10:19:28.219143,-4.34,27.0,185.8,93.4,30.9
2026-06-28T10:19:28.328178,-8.83,27.0,185.8,93.4,30.9
2026-06-28T10:19:28.331067,-7.84,27.0,185.8,93.4,30.9
2026-06-28T10:19:28.336060,-8.88,27.0,185.8,93.4,30.9
2026-06-28T10:19:28.338898,-7.75,27.0,185.8,93.4,30.9
2026-06-28T10:19:28.386185,-8.04,27.0,185.8,93.4,30.9
2026-06-28T10:19:28.389239,-5.13,27.0,185.8,93.4,30.9
2026-06-28T10:19:28.434360,-9.42,27.0,185.8,93.4,30.9
2026-06-28T10:19:28.437090,-9.97,27.0,185.8,93.4,30.9
2026-06-28T10:19:28.492799,-11.24,27.0,185.8,93.4,30.9
2026-06-28T10:19:28.495370,-6.86,27.0,185.8,93.4,30.9
2026-06-28T10:19:28.501989,-6.39,27.0,185.8,93.4,30.9
2026-06-28T10:19:28.504192,-11.67,27.0,185.8,93.4,30.9
2026-06-28T10:19:28.506475,-5.33,27.0,185.8,93.4,30.9
2026-06-28T10:19:28.553586,-17.38,27.0,185.8,93.4,30.9
2026-06-28T10:19:28.555997,-9.27,27.0,185.8,93.4,30.9
2026-06-28T10:19:28.599130,-7.14,27.0,185.8,93.4,30.9
2026-06-28T10:19:28.601417,-5.99,27.0,185.8,93.4,30.9
2026-06-28T10:19:28.648375,-8.93,27.0,185.8,93.4,30.9
2026-06-28T10:19:28.669736,-5.02,27.0,185.8,93.4,30.9
2026-06-28T10:19:28.702559,-8.09,27.0,185.8,93.4,30.9
2026-06-28T10:19:28.705876,-8.8,27.0,185.8,93.4,30.9
2026-06-28T10:19:28.708058,-9.45,27.0,185.8,93.4,30.9
2026-06-28T10:19:28.744857,-8.95,27.0,185.8,93.4,30.9
2026-06-28T10:19:28.747206,-7.22,27.0,185.8,93.4,30.9
2026-06-28T10:19:28.796934,-7.55,27.0,185.8,93.4,30.9
2026-06-28T10:19:28.799667,-6.28,27.0,185.8,93.4,30.9
2026-06-28T10:19:28.843941,-2.76,27.0,185.8,93.4,30.9
2026-06-28T10:19:28.847052,2.07,27.0,185.8,93.4,30.9
2026-06-28T10:19:28.892808,-2.68,27.0,185.8,93.4,30.9
2026-06-28T10:19:28.895511,-6.62,27.0,185.8,93.4,30.9
2026-06-28T10:19:28.943962,-2.62,27.0,185.8,93.5,30.9
2026-06-28T10:19:28.949494,-4.9,27.0,185.8,93.5,30.9
2026-06-28T10:19:28.955703,-13.94,27.0,185.8,93.5,30.9
2026-06-28T10:19:29.004573,-9.85,27.0,185.8,93.5,30.9
2026-06-28T10:19:29.010378,2.02,27.0,185.8,93.4,30.9
2026-06-28T10:19:29.039073,3.57,27.0,185.8,93.4,30.9
2026-06-28T10:19:29.042090,-5.04,27.0,185.8,93.4,30.9
2026-06-28T10:19:29.087240,1.7,27.0,185.8,93.4,30.9
2026-06-28T10:19:29.089843,2.07,27.0,185.8,93.4,30.9
2026-06-28T10:19:29.136644,1.05,27.0,185.8,93.4,30.9
2026-06-28T10:19:29.138931,0.98,27.0,185.8,93.4,30.9
2026-06-28T10:19:29.185144,6.95,27.0,185.8,93.4,30.9
2026-06-28T10:19:29.188062,-2.43,27.0,185.8,93.4,30.9
2026-06-28T10:19:29.233870,0.14,27.0,185.8,93.4,30.9
2026-06-28T10:19:29.236909,-2.8,27.0,185.8,93.4,30.9
2026-06-28T10:19:29.240005,-10.39,27.0,185.8,93.4,30.9
2026-06-28T10:19:29.283129,3.81,27.0,185.8,93.4,30.9
2026-06-28T10:19:29.330759,2.55,27.0,185.8,93.4,30.9
2026-06-28T10:19:29.333419,5.13,27.0,185.8,93.4,30.9
2026-06-28T10:19:29.336063,-5.69,27.0,185.8,93.4,30.9
2026-06-28T10:19:29.380152,1.35,27.0,185.8,93.4,30.9
2026-06-28T10:19:29.382561,-2.17,27.0,185.8,93.4,30.9
2026-06-28T10:19:29.384855,-0.09,27.0,185.8,93.4,30.9
2026-06-28T10:19:29.430144,2.42,27.0,185.8,93.4,30.9
2026-06-28T10:19:29.432843,8.73,27.0,185.8,93.4,30.9
2026-06-28T10:19:29.477414,13.04,27.0,185.8,93.4,30.9
2026-06-28T10:19:29.479891,8.34,27.0,185.8,93.4,30.9
2026-06-28T10:19:29.526048,1.89,27.0,185.8,93.4,30.9
2026-06-28T10:19:29.529293,4.78,27.0,185.8,93.4,30.9
2026-06-28T10:19:29.575047,6.76,27.0,185.8,93.5,30.9
2026-06-28T10:19:29.577177,-0.12,27.0,185.8,93.5,30.9
2026-06-28T10:19:29.623945,5.3,27.0,185.8,93.5,30.9
2026-06-28T10:19:29.626253,-7.14,27.0,185.8,93.5,30.9
2026-06-28T10:19:29.673803,6.37,27.0,185.8,93.4,30.9
2026-06-28T10:19:29.676182,-7.28,27.0,185.8,93.4,30.9
2026-06-28T10:19:29.678403,1.55,27.0,185.8,93.4,30.9
2026-06-28T10:19:29.721253,8.33,27.0,185.8,93.4,30.9
2026-06-28T10:19:29.724032,3.39,27.0,185.8,93.4,30.9
2026-06-28T10:19:29.771576,-3.72,27.0,185.8,93.4,30.9
2026-06-28T10:19:29.774270,-6.23,27.0,185.8,93.4,30.9
2026-06-28T10:19:29.819782,9.04,27.0,185.8,93.4,30.9
2026-06-28T10:19:29.822477,2.71,27.0,185.8,93.4,30.9
2026-06-28T10:19:29.878595,9.81,27.0,185.8,93.4,30.9
2026-06-28T10:19:29.882994,6.69,27.0,185.8,93.4,30.9
2026-06-28T10:19:29.887379,3.23,27.0,185.8,93.4,30.9
2026-06-28T10:19:29.939806,8.57,27.0,185.8,93.4,30.9
2026-06-28T10:19:29.946038,1.06,27.0,185.8,93.4,30.9
2026-06-28T10:19:29.991852,15.72,27.0,185.8,93.4,30.9
2026-06-28T10:19:29.999661,-6.14,27.0,185.8,93.4,30.9
2026-06-28T10:19:30.027658,1.67,27.0,185.8,93.4,30.9
2026-06-28T10:19:30.327471,-7.29,27.0,185.8,93.4,30.9
2026-06-28T10:19:30.329608,-0.15,27.0,185.8,93.4,30.9
2026-06-28T10:19:30.331633,3.08,27.0,185.8,93.4,30.9
2026-06-28T10:19:30.333636,-5.62,27.0,185.8,93.4,30.9
2026-06-28T10:19:30.335818,-0.3,27.0,185.8,93.4,30.9
2026-06-28T10:19:30.337979,0.24,27.0,185.8,93.4,30.9
2026-06-28T10:19:30.430731,-6.13,27.0,185.8,93.4,30.9
2026-06-28T10:19:30.432861,1.95,27.0,185.8,93.4,30.9
2026-06-28T10:19:30.434987,6.83,27.0,185.8,93.5,30.9
2026-06-28T10:19:30.436987,0.24,27.0,185.8,93.5,30.9
2026-06-28T10:19:30.439391,5.75,27.0,185.8,93.5,30.9
2026-06-28T10:19:30.493806,3.49,27.0,185.8,93.5,30.9
2026-06-28T10:19:30.495903,-4.12,27.0,185.8,93.4,30.9
2026-06-28T10:19:30.498024,11.96,27.0,185.8,93.4,30.9
2026-06-28T10:19:30.500083,7.62,27.0,185.8,93.4,30.9
2026-06-28T10:19:30.503571,-1.22,27.0,185.8,93.4,30.9
2026-06-28T10:19:30.505882,5.72,27.0,185.8,93.4,30.9
2026-06-28T10:19:30.549803,-0.66,27.0,185.8,93.4,30.9
2026-06-28T10:19:30.551952,1.93,27.0,185.8,93.4,30.9
2026-06-28T10:19:30.553952,2.6,27.0,185.8,93.4,30.9
2026-06-28T10:19:30.556305,-6.45,27.0,185.8,93.4,30.9
2026-06-28T10:19:30.558499,4.32,27.0,185.8,93.4,30.9
2026-06-28T10:19:30.560780,6.32,27.0,185.8,93.4,30.9
2026-06-28T10:19:30.606786,2.27,27.0,185.8,93.4,30.9
2026-06-28T10:19:30.608827,-20.0,27.0,185.8,93.4,30.9
2026-06-28T10:19:30.610726,-1.76,27.0,185.8,93.4,30.9
2026-06-28T10:19:30.612384,13.13,27.0,185.8,93.4,30.9
2026-06-28T10:19:30.614332,-0.71,27.0,185.8,93.4,30.9
2026-06-28T10:19:30.656567,3.82,27.0,185.8,93.4,30.9
2026-06-28T10:19:30.659016,-9.25,27.0,185.8,93.4,30.9
2026-06-28T10:19:30.707755,-9.32,27.0,185.8,93.4,30.9
2026-06-28T10:19:30.711468,5.34,27.0,185.8,93.4,30.9
2026-06-28T10:19:30.760956,-4.76,27.0,185.8,93.4,30.9
2026-06-28T10:19:30.762963,0.45,27.0,185.8,93.4,30.9
2026-06-28T10:19:30.818643,-10.36,27.0,185.8,93.4,30.9
2026-06-28T10:19:30.820695,-7.26,27.0,185.8,93.4,30.9
2026-06-28T10:19:30.864847,-1.89,27.0,185.8,93.4,30.9
2026-06-28T10:19:30.866967,0.87,27.0,185.8,93.4,30.9
2026-06-28T10:19:30.870724,-1.19,27.0,185.8,93.4,30.9
2026-06-28T10:19:30.990360,-2.4,27.0,185.8,93.4,30.9
2026-06-28T10:19:30.995027,-5.15,27.0,185.8,93.4,30.9
2026-06-28T10:19:30.998876,6.29,27.0,185.8,93.4,30.9
2026-06-28T10:19:31.001991,13.83,27.0,185.8,93.4,30.9
2026-06-28T10:19:31.004853,13.55,27.0,185.8,93.4,30.9
2026-06-28T10:19:31.089015,7.61,27.0,185.8,93.4,30.9
2026-06-28T10:19:31.091504,6.95,27.0,185.8,93.4,30.9
2026-06-28T10:19:31.103971,18.13,27.0,185.8,93.4,30.9
2026-06-28T10:19:31.152098,-0.48,27.0,185.8,93.4,30.9
2026-06-28T10:19:31.156168,-0.93,27.0,185.8,93.4,30.9
2026-06-28T10:19:31.158684,-4.05,27.0,185.8,93.4,30.9
2026-06-28T10:19:31.162466,14.78,27.0,185.8,93.4,30.9
2026-06-28T10:19:31.210359,10.51,27.0,185.8,93.4,30.9
2026-06-28T10:19:31.215512,1.63,27.0,185.8,93.4,30.9
2026-06-28T10:19:31.217926,-4.54,27.0,185.8,93.4,30.9
2026-06-28T10:19:31.289819,-11.73,27.0,185.8,93.4,30.9
2026-06-28T10:19:31.294974,-15.85,27.0,185.8,93.4,30.9
2026-06-28T10:19:31.299451,-6.71,27.0,185.8,93.4,30.9
2026-06-28T10:19:31.340543,-48.53,27.0,185.8,93.4,30.9
2026-06-28T10:19:31.344878,-12.37,27.0,185.8,93.4,30.9
2026-06-28T10:19:31.347156,-41.97,27.0,185.8,93.4,30.9
2026-06-28T10:19:31.349471,-20.51,27.0,185.8,93.4,30.9
2026-06-28T10:19:31.399572,-14.84,27.0,185.8,93.4,30.9
2026-06-28T10:19:31.402340,-3.31,27.0,185.8,93.4,30.9
2026-06-28T10:19:31.470717,-19.21,27.0,185.8,93.4,30.9
2026-06-28T10:19:31.473088,-13.89,27.0,185.8,93.4,30.9
2026-06-28T10:19:31.477287,-17.08,27.0,185.8,93.4,30.9
2026-06-28T10:19:31.479794,-29.04,27.0,185.8,93.5,30.9
2026-06-28T10:19:31.536897,-32.13,27.0,185.8,93.5,30.9
2026-06-28T10:19:31.588554,-23.65,27.0,185.8,93.5,30.9
2026-06-28T10:19:31.591275,-8.04,27.0,185.8,93.5,30.9
2026-06-28T10:19:31.593597,36.46,27.0,185.8,93.4,30.9
2026-06-28T10:19:31.653731,72.35,27.0,185.8,93.4,30.9
2026-06-28T10:19:31.656887,48.87,27.0,185.8,93.4,30.9
2026-06-28T10:19:31.660228,51.12,27.0,185.8,93.4,30.9
2026-06-28T10:19:31.702813,19.55,27.0,185.8,93.4,30.9
2026-06-28T10:19:31.707005,-21.49,27.0,185.8,93.4,30.9
2026-06-28T10:19:31.751542,-15.19,27.0,185.8,93.4,30.9
2026-06-28T10:19:31.797110,-22.15,27.0,185.8,93.4,30.9
2026-06-28T10:19:31.802589,-27.0,27.0,185.8,93.4,30.9
2026-06-28T10:19:31.805759,-2.67,27.0,185.8,93.4,30.9
2026-06-28T10:19:31.847639,-18.68,27.0,185.8,93.4,30.9
2026-06-28T10:19:31.851242,-24.17,27.0,185.8,93.4,30.9
2026-06-28T10:19:31.853839,-30.14,27.0,185.8,93.4,30.9
2026-06-28T10:19:31.906196,-46.6,27.0,185.8,93.4,30.9
2026-06-28T10:19:31.908375,-40.03,27.0,185.8,93.4,30.9
2026-06-28T10:19:31.970498,-5.35,27.0,185.8,93.4,30.9
2026-06-28T10:19:31.975241,-4.7,27.0,185.8,93.4,30.9
2026-06-28T10:19:31.977350,-9.46,27.0,185.8,93.4,30.9
2026-06-28T10:19:31.980550,-96.28,27.0,185.8,93.4,30.9
2026-06-28T10:19:31.983300,36.51,27.0,185.8,93.4,30.9
2026-06-28T10:19:32.042447,-44.58,27.0,185.8,93.4,30.9
2026-06-28T10:19:32.045008,1.15,27.0,185.8,93.4,30.9
2026-06-28T10:19:32.089387,-5.77,27.0,185.8,93.4,30.9
2026-06-28T10:19:32.127965,5.07,27.0,185.8,93.4,30.9
2026-06-28T10:19:32.131119,-14.47,27.0,185.8,93.4,30.9
2026-06-28T10:19:32.133344,-20.08,27.0,185.8,93.4,30.9
2026-06-28T10:19:32.169606,-18.14,27.0,185.8,93.4,30.9
2026-06-28T10:19:32.173755,-31.91,27.0,185.8,93.4,30.9
2026-06-28T10:19:32.220092,-15.88,27.0,185.8,93.4,30.9
2026-06-28T10:19:32.222440,-3.66,27.0,185.8,93.4,30.9
2026-06-28T10:19:32.224435,59.05,27.0,185.8,93.4,30.9
2026-06-28T10:19:32.269181,123.93,27.0,185.8,93.4,30.9
2026-06-28T10:19:32.318811,112.36,27.0,185.8,93.4,30.9
2026-06-28T10:19:32.322277,100.37,27.0,185.8,93.4,30.9
2026-06-28T10:19:32.328851,68.34,27.0,185.8,93.4,30.9
2026-06-28T10:19:32.385125,45.93,27.0,185.8,93.4,30.9
2026-06-28T10:19:32.387093,-3.33,27.0,185.8,93.4,30.9
2026-06-28T10:19:32.426250,-23.22,27.0,185.8,93.4,30.9
2026-06-28T10:19:32.428175,-10.46,27.0,185.8,93.4,30.9
2026-06-28T10:19:32.479304,-7.55,27.0,185.8,93.4,30.9
2026-06-28T10:19:32.532086,-25.28,27.0,185.8,93.4,30.9
2026-06-28T10:19:32.534375,-3.79,27.0,185.8,93.4,30.9
2026-06-28T10:19:32.541709,-8.37,27.0,185.8,93.4,30.9
2026-06-28T10:19:32.547966,-25.97,27.0,185.8,93.4,30.9
2026-06-28T10:19:32.598357,-3.98,27.0,185.8,93.4,30.9
2026-06-28T10:19:32.602177,-26.5,27.0,185.8,93.4,30.9
2026-06-28T10:19:32.604380,-63.53,27.0,185.8,93.4,30.9
2026-06-28T10:19:32.643371,12.0,27.0,185.8,93.4,30.9
2026-06-28T10:19:32.645759,-2.94,27.0,185.8,93.4,30.9
2026-06-28T10:19:32.704544,1.97,27.0,185.8,93.4,30.9
2026-06-28T10:19:32.706478,-87.06,27.0,185.8,93.4,30.9
2026-06-28T10:19:32.708455,100.82,27.0,185.8,93.4,30.9
2026-06-28T10:19:32.710273,19.53,27.0,185.8,93.4,30.9
2026-06-28T10:19:32.743823,24.54,27.0,185.8,93.4,30.9
2026-06-28T10:19:32.780259,16.73,27.0,185.8,93.4,30.9
2026-06-28T10:19:32.791447,22.79,27.0,185.8,93.4,30.9
2026-06-28T10:19:32.819636,9.8,27.0,185.8,93.4,30.9
2026-06-28T10:19:32.852640,-8.72,27.0,185.8,93.4,30.9
2026-06-28T10:19:32.855381,-22.08,27.0,185.8,93.5,30.9
2026-06-28T10:19:32.889277,-41.45,27.0,185.8,93.5,30.9
2026-06-28T10:19:32.918911,-32.53,27.0,185.8,93.5,30.9
2026-06-28T10:19:32.952544,24.64,27.0,185.8,93.4,30.9
2026-06-28T10:19:32.954492,67.41,27.0,185.8,93.4,30.9
2026-06-28T10:19:32.956554,167.71,27.0,185.8,93.4,30.9
2026-06-28T10:19:32.989042,137.26,27.0,185.8,93.4,30.9
2026-06-28T10:19:32.991073,78.13,27.0,185.8,93.4,30.9
2026-06-28T10:19:33.042661,39.49,27.0,185.8,93.4,30.9
2026-06-28T10:19:33.110370,28.97,27.0,185.8,93.4,30.9
2026-06-28T10:19:33.115351,-27.37,27.0,185.8,93.4,30.9
2026-06-28T10:19:33.119972,-59.11,27.0,185.8,93.4,30.9
2026-06-28T10:19:33.151355,-25.5,27.0,185.8,93.4,30.9
2026-06-28T10:19:33.153877,-22.07,27.0,185.8,93.4,30.9
2026-06-28T10:19:33.186851,-27.0,27.0,185.8,93.4,30.9
2026-06-28T10:19:33.188846,-25.15,27.0,185.8,93.4,30.9
2026-06-28T10:19:33.190916,-35.31,27.0,185.8,93.4,30.9
2026-06-28T10:19:33.238065,-33.72,27.0,185.8,93.4,30.9
2026-06-28T10:19:33.239909,-35.77,27.0,185.8,93.4,30.9
2026-06-28T10:19:33.279512,-8.41,27.0,185.8,93.4,30.9
2026-06-28T10:19:33.306577,-26.12,27.0,185.8,93.4,30.9
2026-06-28T10:19:33.338700,-44.26,27.0,185.8,93.4,30.9
2026-06-28T10:19:33.340569,-19.91,27.0,185.8,93.4,30.9
2026-06-28T10:19:33.379667,15.78,27.0,185.8,93.4,30.9
2026-06-28T10:19:33.381422,21.84,27.0,185.8,93.4,30.9
2026-06-28T10:19:33.447857,-115.84,27.0,185.8,93.4,30.9
2026-06-28T10:19:33.452341,240.29,27.0,185.8,93.4,30.9
2026-06-28T10:19:33.456480,-153.82,27.0,185.8,93.4,30.9
2026-06-28T10:19:33.489391,-68.98,27.0,185.8,93.4,30.9
2026-06-28T10:19:33.491195,-31.81,27.0,185.8,93.4,30.9
2026-06-28T10:19:33.526874,-31.22,27.0,185.8,93.4,30.9
2026-06-28T10:19:33.528977,-16.69,27.0,185.8,93.4,30.9
2026-06-28T10:19:33.581749,-24.4,27.0,185.8,93.4,30.9
2026-06-28T10:19:33.583633,-34.12,27.0,185.8,93.4,30.9
2026-06-28T10:19:33.620355,-18.93,27.0,185.8,93.4,30.9
2026-06-28T10:19:33.622003,-34.67,27.0,185.8,93.4,30.9
2026-06-28T10:19:33.676146,-13.42,27.0,185.8,93.5,30.9
2026-06-28T10:19:33.678050,23.19,27.0,185.8,93.5,30.9
2026-06-28T10:19:33.679842,165.87,27.0,185.8,93.5,30.9
2026-06-28T10:19:33.718838,145.36,27.0,185.8,93.4,30.9
2026-06-28T10:19:33.720716,103.89,27.0,185.8,93.4,30.9
2026-06-28T10:19:33.771275,79.72,27.0,185.8,93.4,30.9
2026-06-28T10:19:33.774465,39.96,27.0,185.8,93.4,30.9
2026-06-28T10:19:33.826890,12.08,27.0,185.8,93.4,30.9
2026-06-28T10:19:33.828681,-45.72,27.0,185.8,93.4,30.9
2026-06-28T10:19:33.865725,4.92,27.0,185.8,93.4,30.9
2026-06-28T10:19:33.867754,-58.33,27.0,185.8,93.4,30.9
2026-06-28T10:19:33.917697,-54.94,27.0,185.8,93.4,30.9
2026-06-28T10:19:33.919729,-46.92,27.0,185.8,93.4,30.9
2026-06-28T10:19:33.974034,-42.21,27.0,185.8,93.4,30.9
2026-06-28T10:19:33.976809,-40.33,27.0,185.8,93.4,30.9
2026-06-28T10:19:33.979044,-40.17,27.0,185.8,93.4,30.9
2026-06-28T10:19:34.016119,-16.12,27.0,185.8,93.4,30.9
2026-06-28T10:19:34.046716,-30.75,27.0,185.8,93.4,30.9
2026-06-28T10:19:34.084800,-85.23,27.0,185.8,93.4,30.9
2026-06-28T10:19:34.086960,-34.61,27.0,185.8,93.4,30.9
2026-06-28T10:19:34.117046,5.02,27.0,185.8,93.4,30.9
2026-06-28T10:19:34.119052,-10.67,27.0,185.8,93.4,30.9
2026-06-28T10:19:34.172642,-129.75,27.0,185.8,93.4,30.9
2026-06-28T10:19:34.174720,45.98,27.0,185.8,93.4,30.9
2026-06-28T10:19:34.211022,-222.38,27.0,185.8,93.4,30.9
2026-06-28T10:19:34.213046,-74.88,27.0,185.8,93.4,30.9
2026-06-28T10:19:34.214982,-30.04,27.0,185.8,93.4,30.9
2026-06-28T10:19:34.263644,-39.72,27.0,185.8,93.4,30.9
2026-06-28T10:19:34.265731,-11.86,27.0,185.8,93.4,30.9
2026-06-28T10:19:34.315094,5.84,27.0,185.8,93.4,30.9
2026-06-28T10:19:34.316873,-33.41,27.0,185.8,93.4,30.9
2026-06-28T10:19:34.354668,-28.92,27.0,185.8,93.4,30.9
2026-06-28T10:19:34.356616,-35.11,27.0,185.8,93.5,30.9
2026-06-28T10:19:34.405777,-31.22,27.0,185.8,93.5,30.9
2026-06-28T10:19:34.409563,42.84,27.0,185.8,93.5,30.9
2026-06-28T10:19:34.464355,115.36,27.0,185.8,93.5,30.9
2026-06-28T10:19:34.469430,125.89,27.0,185.8,93.4,30.9
2026-06-28T10:19:34.512157,103.43,27.0,185.8,93.4,30.9
2026-06-28T10:19:34.514417,77.09,27.0,185.8,93.4,30.9
2026-06-28T10:19:34.516617,21.7,27.0,185.8,93.4,30.9
2026-06-28T10:19:34.554752,-0.06,27.0,185.8,93.4,30.9
2026-06-28T10:19:34.556666,-2.41,27.0,185.8,93.4,30.9
2026-06-28T10:19:34.600747,-40.89,27.0,185.8,93.4,30.9
2026-06-28T10:19:34.603331,-21.31,27.0,185.8,93.4,30.9
2026-06-28T10:19:34.648041,-9.24,27.0,185.8,93.4,30.9
2026-06-28T10:19:34.652692,-12.43,27.0,185.8,93.4,30.9
2026-06-28T10:19:34.702320,-30.46,27.0,185.8,93.4,30.9
2026-06-28T10:19:34.707244,-23.29,27.0,185.8,93.4,30.9
2026-06-28T10:19:34.784899,-61.17,27.0,185.8,93.4,30.9
2026-06-28T10:19:34.786933,9.07,27.0,185.8,93.4,30.9
2026-06-28T10:19:34.789050,14.58,27.0,185.8,93.4,30.9
2026-06-28T10:19:34.790898,43.93,27.0,185.8,93.4,30.9
2026-06-28T10:19:34.839205,-84.3,27.0,185.8,93.4,30.9
2026-06-28T10:19:34.841018,125.95,27.0,185.8,93.4,30.9
2026-06-28T10:19:34.842826,-135.81,27.0,185.8,93.4,30.9
2026-06-28T10:19:34.896856,-8.53,27.0,185.8,93.4,30.9
2026-06-28T10:19:34.898826,0.56,27.0,185.8,93.4,30.9
2026-06-28T10:19:34.947792,-6.08,27.0,185.8,93.4,30.9
2026-06-28T10:19:34.986379,-1.57,27.0,185.8,93.4,30.9
2026-06-28T10:19:34.988228,-12.66,27.0,185.8,93.4,30.9
2026-06-28T10:19:34.990054,-16.26,27.0,185.8,93.4,30.9
2026-06-28T10:19:34.991926,-32.61,27.0,185.8,93.5,30.9
2026-06-28T10:19:35.036351,-39.02,27.0,185.8,93.5,30.9
2026-06-28T10:19:35.038302,-19.24,27.0,185.8,93.5,30.9
2026-06-28T10:19:35.092265,48.3,27.0,185.8,93.5,30.9
2026-06-28T10:19:35.094739,134.31,27.0,185.8,93.4,30.9
2026-06-28T10:19:35.131453,166.77,27.0,185.8,93.4,30.9
2026-06-28T10:19:35.133278,119.59,27.0,185.8,93.4,30.9
2026-06-28T10:19:35.183919,85.62,27.0,185.8,93.4,30.9
2026-06-28T10:19:35.185797,28.48,27.0,185.8,93.4,30.9
2026-06-28T10:19:35.187726,-14.19,27.0,185.8,93.4,30.9
2026-06-28T10:19:35.234527,-17.08,27.0,185.8,93.4,30.9
2026-06-28T10:19:35.236287,-32.0,27.0,185.8,93.4,30.9
2026-06-28T10:19:35.279787,-37.35,27.0,185.8,93.4,30.9
2026-06-28T10:19:35.281653,-40.21,27.0,185.8,93.4,30.9
2026-06-28T10:19:35.336458,-30.72,27.0,185.8,93.4,30.9
2026-06-28T10:19:35.338666,-44.08,27.0,185.8,93.4,30.9
2026-06-28T10:19:35.409066,-56.34,27.0,185.8,93.4,30.9
2026-06-28T10:19:35.411290,-65.76,27.0,185.8,93.4,30.9
2026-06-28T10:19:35.440878,2.08,27.0,185.8,93.4,30.9
2026-06-28T10:19:35.442639,-27.22,27.0,185.8,93.4,30.9
2026-06-28T10:19:35.444698,-45.22,27.0,185.8,93.4,30.9
2026-06-28T10:19:35.486601,-53.58,27.0,185.8,93.4,30.9
2026-06-28T10:19:35.488278,-98.89,27.0,185.8,93.4,30.9
2026-06-28T10:19:35.522046,-18.2,27.0,185.8,93.4,30.9
2026-06-28T10:19:35.523990,0.02,27.0,185.8,93.4,30.9
2026-06-28T10:19:35.571008,-3.01,27.0,185.8,93.5,30.9
2026-06-28T10:19:35.574895,-9.48,27.0,185.8,93.5,30.9
2026-06-28T10:19:35.623619,-21.43,27.0,185.8,93.5,30.9
2026-06-28T10:19:35.625365,-22.15,27.0,185.8,93.5,30.9
2026-06-28T10:19:35.673260,-26.72,27.0,185.8,93.5,30.9
2026-06-28T10:19:35.676372,-31.62,27.0,185.8,93.5,30.9
2026-06-28T10:19:35.678804,-24.81,27.0,185.8,93.5,30.9
2026-06-28T10:19:35.725779,10.13,27.0,185.8,93.5,30.9
2026-06-28T10:19:35.727559,76.33,27.0,185.8,93.5,30.9
2026-06-28T10:19:35.765320,112.92,27.0,185.8,93.5,30.9
2026-06-28T10:19:35.767148,105.6,27.0,185.8,93.5,30.9
2026-06-28T10:19:35.818966,90.2,27.0,185.8,93.4,30.9
2026-06-28T10:19:35.820865,45.3,27.0,185.8,93.4,30.9
2026-06-28T10:19:35.869822,18.87,27.0,185.8,93.4,30.9
2026-06-28T10:19:35.871533,-10.8,27.0,185.8,93.4,30.9
2026-06-28T10:19:35.911979,-12.24,27.0,185.8,93.4,30.9
2026-06-28T10:19:35.938640,-31.65,27.0,185.8,93.4,30.9
2026-06-28T10:19:35.940545,7.66,27.0,185.8,93.4,30.9
2026-06-28T10:19:35.969003,1.25,27.0,185.8,93.4,30.9
2026-06-28T10:19:35.970741,-10.74,27.0,185.8,93.4,30.9
2026-06-28T10:19:36.008861,-18.79,27.0,185.8,93.4,30.9
2026-06-28T10:19:36.010478,-48.61,27.0,185.8,93.4,30.9
2026-06-28T10:19:36.058660,-33.18,27.0,185.8,93.4,30.9
2026-06-28T10:19:36.060550,4.5,27.0,185.8,93.4,30.9
2026-06-28T10:19:36.112624,-7.22,27.0,185.8,93.4,30.9
2026-06-28T10:19:36.114579,-44.05,27.0,185.8,93.4,30.9
2026-06-28T10:19:36.155381,112.26,27.0,185.8,93.4,30.9
2026-06-28T10:19:36.157229,-263.76,27.0,185.8,93.4,30.9
2026-06-28T10:19:36.159060,-45.32,27.0,185.8,93.4,30.9
2026-06-28T10:19:36.204856,30.51,27.0,185.8,93.5,30.9
2026-06-28T10:19:36.207763,23.67,27.0,185.8,93.5,30.9
2026-06-28T10:19:36.258349,0.85,27.0,185.8,93.5,30.9
2026-06-28T10:19:36.260210,4.84,27.0,185.8,93.5,30.9
2026-06-28T10:19:36.322475,-26.49,27.0,185.8,93.5,30.9
2026-06-28T10:19:36.324188,-45.44,27.0,185.8,93.5,30.9
2026-06-28T10:19:36.360397,-50.12,27.0,185.8,93.5,30.9
2026-06-28T10:19:36.362226,-24.63,27.0,185.8,93.5,30.9
2026-06-28T10:19:36.398965,16.45,27.0,185.8,93.5,30.9
2026-06-28T10:19:36.400602,152.43,27.0,185.8,93.5,30.9
2026-06-28T10:19:36.402295,148.27,27.0,185.8,93.5,30.9
2026-06-28T10:19:36.450321,115.99,27.0,185.8,93.4,30.9
2026-06-28T10:19:36.452655,80.72,27.0,185.8,93.4,30.9
2026-06-28T10:19:36.502037,26.61,27.0,185.8,93.4,30.9
2026-06-28T10:19:36.503712,-35.31,27.0,185.8,93.4,30.9
2026-06-28T10:19:36.545909,-63.46,27.0,185.8,93.4,30.9
2026-06-28T10:19:36.567087,-72.63,27.0,185.8,93.4,30.9
2026-06-28T10:19:36.603571,-54.76,27.0,185.8,93.4,30.9
2026-06-28T10:19:36.605227,-39.1,27.0,185.8,93.4,30.9
2026-06-28T10:19:36.642861,-22.62,27.0,185.8,93.4,30.9
2026-06-28T10:19:36.644532,-26.26,27.0,185.8,93.4,30.9
2026-06-28T10:19:36.646251,-51.82,27.0,185.8,93.4,30.9
2026-06-28T10:19:36.692874,-61.44,27.0,185.8,93.4,30.9
2026-06-28T10:19:36.695972,-16.52,27.0,185.8,93.4,30.9
2026-06-28T10:19:36.741372,-3.07,27.0,185.8,93.4,30.9
2026-06-28T10:19:36.743273,-20.85,27.0,185.8,93.4,30.9
2026-06-28T10:19:36.794862,-177.91,27.0,185.8,93.4,30.9
2026-06-28T10:19:36.798028,195.25,27.0,185.8,93.4,30.9
2026-06-28T10:19:36.842872,-162.53,27.0,185.8,93.4,30.9
2026-06-28T10:19:36.844551,-38.21,27.0,185.8,93.5,30.9
2026-06-28T10:19:36.890536,-2.1,27.0,185.8,93.5,30.9
2026-06-28T10:19:36.892297,-40.33,27.0,185.8,93.5,30.9
2026-06-28T10:19:36.936212,-35.23,27.0,185.8,93.5,30.9
2026-06-28T10:19:36.938291,-54.71,27.0,185.8,93.5,30.9
2026-06-28T10:19:36.939850,-55.05,27.0,185.8,93.5,30.9
2026-06-28T10:19:36.990908,-42.72,27.0,185.8,93.5,30.9
2026-06-28T10:19:36.992719,-37.65,27.0,185.8,93.5,30.9
2026-06-28T10:19:37.034053,-8.88,27.0,185.8,93.5,30.9
2026-06-28T10:19:37.070642,69.62,27.0,185.8,93.5,30.9
2026-06-28T10:19:37.125350,153.25,27.0,185.8,93.5,30.9
2026-06-28T10:19:37.128722,130.55,27.0,185.8,93.4,30.9
2026-06-28T10:19:37.135733,68.29,27.0,185.8,93.4,30.9
2026-06-28T10:19:37.162487,77.32,27.0,185.8,93.4,30.9
2026-06-28T10:19:37.190443,37.67,27.0,185.8,93.4,30.9
2026-06-28T10:19:37.192287,-29.03,27.0,185.8,93.4,30.9
2026-06-28T10:19:37.194179,-32.15,27.0,185.8,93.4,30.9
2026-06-28T10:19:37.233816,-4.71,27.0,185.8,93.4,30.9
2026-06-28T10:19:37.276884,-31.14,27.0,185.8,93.4,30.9
2026-06-28T10:19:37.278569,9.55,27.0,185.8,93.4,30.9
2026-06-28T10:19:37.280265,-13.17,27.0,185.8,93.4,30.9
2026-06-28T10:19:37.326772,9.87,27.0,185.8,93.4,30.9
2026-06-28T10:19:37.328447,-81.23,27.0,185.8,93.4,30.9
2026-06-28T10:19:37.378477,-15.83,27.0,185.8,93.4,30.9
2026-06-28T10:19:37.380472,23.48,27.0,185.8,93.4,30.9
2026-06-28T10:19:37.382208,16.42,27.0,185.8,93.4,30.9
2026-06-28T10:19:37.433402,-49.79,27.0,185.8,93.4,30.9
2026-06-28T10:19:37.435199,140.77,27.0,185.8,93.4,30.9
2026-06-28T10:19:37.477191,22.04,27.0,185.8,93.4,30.9
2026-06-28T10:19:37.478929,37.39,27.0,185.8,93.4,30.9
2026-06-28T10:19:37.522254,12.34,27.0,185.8,93.4,30.9
2026-06-28T10:19:37.524099,-38.36,27.0,185.8,93.4,30.9
2026-06-28T10:19:37.577778,-11.65,27.0,185.8,93.5,30.9
2026-06-28T10:19:37.579434,-41.85,27.0,185.8,93.5,30.9
2026-06-28T10:19:37.623156,-45.77,27.0,185.8,93.5,30.9
2026-06-28T10:19:37.624845,-57.14,27.0,185.8,93.5,30.9
2026-06-28T10:19:37.668033,-53.96,27.0,185.8,93.5,30.9
2026-06-28T10:19:37.688148,-29.56,27.0,185.8,93.5,30.9
2026-06-28T10:19:37.689907,33.04,27.0,185.8,93.5,30.9
2026-06-28T10:19:37.720514,156.1,27.0,185.8,93.4,30.9
2026-06-28T10:19:37.722243,138.85,27.0,185.8,93.4,30.9
2026-06-28T10:19:37.765992,115.81,27.0,185.8,93.4,30.9
2026-06-28T10:19:37.768109,73.26,27.0,185.8,93.4,30.9
2026-06-28T10:19:37.816299,24.61,27.0,185.8,93.4,30.9
2026-06-28T10:19:37.818343,-7.0,27.0,185.8,93.4,30.9
2026-06-28T10:19:37.866418,-25.68,27.0,185.8,93.4,30.9
2026-06-28T10:19:37.868307,-23.1,27.0,185.8,93.4,30.9
2026-06-28T10:19:37.922596,-38.29,27.0,185.8,93.4,30.9
2026-06-28T10:19:37.924355,-9.31,27.0,185.8,93.4,30.9
2026-06-28T10:19:37.967420,-25.58,27.0,185.8,93.4,30.9
2026-06-28T10:19:37.969236,-24.15,27.0,185.8,93.4,30.9
2026-06-28T10:19:37.970939,-50.51,27.0,185.8,93.4,30.9
2026-06-28T10:19:38.010095,-49.34,27.0,185.8,93.4,30.9
2026-06-28T10:19:38.011866,40.23,27.0,185.8,93.4,30.9
2026-06-28T10:19:38.061119,-12.03,27.0,185.8,93.4,30.9
2026-06-28T10:19:38.062991,-24.83,27.0,185.8,93.4,30.9
2026-06-28T10:19:38.111827,-83.48,27.0,185.8,93.4,30.9
2026-06-28T10:19:38.113873,-95.69,27.0,185.8,93.4,30.9
2026-06-28T10:19:38.115545,-14.02,27.0,185.8,93.4,30.9
2026-06-28T10:19:38.155024,71.16,27.0,185.8,93.4,30.9
2026-06-28T10:19:38.176093,3.37,27.0,185.8,93.4,30.9
2026-06-28T10:19:38.209927,-24.26,27.0,185.8,93.4,30.9
2026-06-28T10:19:38.211677,-39.16,27.0,185.8,93.4,30.9
2026-06-28T10:19:38.252997,-46.19,27.0,185.8,93.4,30.9
2026-06-28T10:19:38.255170,-31.89,27.0,185.8,93.4,30.9
2026-06-28T10:19:38.303961,-53.05,27.0,185.8,93.5,30.9
2026-06-28T10:19:38.305637,-43.42,27.0,185.8,93.5,30.9
2026-06-28T10:19:38.357092,25.5,27.0,185.8,93.5,30.9
2026-06-28T10:19:38.359665,122.98,27.0,185.8,93.4,30.9
2026-06-28T10:19:38.398922,132.03,27.0,185.8,93.4,30.9
2026-06-28T10:19:38.400596,128.72,27.0,185.8,93.4,30.9
2026-06-28T10:19:38.402297,94.77,27.0,185.8,93.4,30.9
2026-06-28T10:19:38.455640,31.42,27.0,185.8,93.4,30.9
2026-06-28T10:19:38.457395,0.99,27.0,185.8,93.4,30.9
2026-06-28T10:19:38.500274,3.09,27.0,185.8,93.4,30.9
2026-06-28T10:19:38.502025,-10.06,27.0,185.8,93.4,30.9
2026-06-28T10:19:38.555229,-13.58,27.0,185.8,93.4,30.9
2026-06-28T10:19:38.556890,-13.08,27.0,185.8,93.4,30.9
2026-06-28T10:19:38.598394,-6.08,27.0,185.8,93.4,30.9
2026-06-28T10:19:38.600271,-48.68,27.0,185.8,93.4,30.9
2026-06-28T10:19:38.643387,-30.94,27.0,185.8,93.4,30.9
2026-06-28T10:19:38.699278,20.96,27.0,185.8,93.4,30.9
2026-06-28T10:19:38.701076,-2.31,27.0,185.8,93.4,30.9
2026-06-28T10:19:38.702927,-45.57,27.0,185.8,93.4,30.9
2026-06-28T10:19:38.704566,91.23,27.0,185.8,93.4,30.9
2026-06-28T10:19:38.744181,-58.15,27.0,185.8,93.4,30.9
2026-06-28T10:19:38.745782,5.25,27.0,185.8,93.4,30.9
2026-06-28T10:19:38.797788,-3.98,27.0,185.8,93.4,30.9
2026-06-28T10:19:38.799451,9.79,27.0,185.8,93.4,30.9
2026-06-28T10:19:38.844668,-23.21,27.0,185.8,93.4,30.9
2026-06-28T10:19:38.846571,-30.32,27.0,185.8,93.4,30.9
2026-06-28T10:19:38.848381,-29.9,27.0,185.8,93.4,30.9
2026-06-28T10:19:38.886737,-32.55,27.0,185.8,93.4,30.9
2026-06-28T10:19:38.888431,-63.67,27.0,185.8,93.4,30.9
2026-06-28T10:19:38.935494,-47.24,27.0,185.8,93.5,30.9
2026-06-28T10:19:38.937098,16.83,27.0,185.8,93.5,30.9
2026-06-28T10:19:38.983781,107.57,27.0,185.8,93.5,30.9
2026-06-28T10:19:38.985353,137.18,27.0,185.8,93.4,30.9
2026-06-28T10:19:39.033604,95.54,27.0,185.8,93.4,30.9
2026-06-28T10:19:39.035722,58.3,27.0,185.8,93.4,30.9
2026-06-28T10:19:39.090152,12.71,27.0,185.8,93.4,30.9
2026-06-28T10:19:39.091909,-40.79,27.0,185.8,93.4,30.9
2026-06-28T10:19:39.094314,-42.36,27.0,185.8,93.4,30.9
2026-06-28T10:19:39.132856,-27.4,27.0,185.8,93.4,30.9
2026-06-28T10:19:39.134679,-4.89,27.0,185.8,93.4,30.9
2026-06-28T10:19:39.179967,-26.94,27.0,185.8,93.4,30.9
2026-06-28T10:19:39.181632,-15.59,27.0,185.8,93.4,30.9
2026-06-28T10:19:39.232190,-19.4,27.0,185.8,93.4,30.9
2026-06-28T10:19:39.233981,-25.06,27.0,185.8,93.4,30.9
2026-06-28T10:19:39.277754,-67.53,27.0,185.8,93.4,30.9
2026-06-28T10:19:39.279498,-14.68,27.0,185.8,93.4,30.9
2026-06-28T10:19:39.326725,1.23,27.0,185.8,93.4,30.9
2026-06-28T10:19:39.328553,-6.64,27.0,185.8,93.4,30.9
2026-06-28T10:19:39.330056,-114.43,27.0,185.8,93.4,30.9
2026-06-28T10:19:39.378038,143.27,27.0,185.8,93.4,30.9
2026-06-28T10:19:39.379909,-158.6,27.0,185.8,93.4,30.9
2026-06-28T10:19:39.423098,-43.17,27.0,185.8,93.4,30.9
2026-06-28T10:19:39.425261,7.75,27.0,185.8,93.4,30.9
2026-06-28T10:19:39.476810,1.78,27.0,185.8,93.4,30.9
2026-06-28T10:19:39.478436,-11.88,27.0,185.8,93.4,30.9
2026-06-28T10:19:39.521092,-8.3,27.0,185.8,93.4,30.9
2026-06-28T10:19:39.522986,-20.76,27.0,185.8,93.4,30.9
2026-06-28T10:19:39.577193,-32.58,27.0,185.8,93.4,30.9
2026-06-28T10:19:39.579317,-26.92,27.0,185.8,93.5,30.9
2026-06-28T10:19:39.581127,4.83,27.0,185.8,93.5,30.9
2026-06-28T10:19:39.621210,66.73,27.0,185.8,93.5,30.9
2026-06-28T10:19:39.622854,169.04,27.0,185.8,93.4,30.9
2026-06-28T10:19:39.681008,119.05,27.0,185.8,93.4,30.9
2026-06-28T10:19:39.682787,91.32,27.0,185.8,93.4,30.9
2026-06-28T10:19:39.719897,34.9,27.0,185.8,93.4,30.9
2026-06-28T10:19:39.721701,14.9,27.0,185.8,93.4,30.9
2026-06-28T10:19:39.765591,-13.49,27.0,185.8,93.4,30.9
2026-06-28T10:19:39.825354,-32.36,27.0,185.8,93.4,30.9
2026-06-28T10:19:39.827196,-26.59,27.0,185.8,93.4,30.9
2026-06-28T10:19:39.829800,-65.5,27.0,185.8,93.4,30.9
2026-06-28T10:19:39.831453,-9.97,27.0,185.8,93.4,30.9
2026-06-28T10:19:39.866903,-21.56,27.0,185.8,93.4,30.9
2026-06-28T10:19:39.868517,-32.94,27.0,185.8,93.4,30.9
2026-06-28T10:19:39.909532,-40.38,27.0,185.8,93.4,30.9
2026-06-28T10:19:39.911506,-40.08,27.0,185.8,93.4,30.9
2026-06-28T10:19:39.966341,-65.39,27.0,185.8,93.4,30.9
2026-06-28T10:19:39.968185,-78.81,27.0,185.8,93.4,30.9
2026-06-28T10:19:40.012586,19.97,27.0,185.8,93.4,30.9
2026-06-28T10:19:40.014560,6.22,27.0,185.8,93.4,30.9
2026-06-28T10:19:40.016221,9.5,27.0,185.8,93.4,30.9
2026-06-28T10:19:40.066485,-124.03,27.0,185.8,93.4,30.9
2026-06-28T10:19:40.068283,-17.05,27.0,185.8,93.4,30.9
2026-06-28T10:19:40.109785,-46.81,27.0,185.8,93.4,30.9
2026-06-28T10:19:40.111519,-0.88,27.0,185.8,93.4,30.9
2026-06-28T10:19:40.154431,0.39,27.0,185.8,93.4,30.9
2026-06-28T10:19:40.202237,-15.42,27.0,185.8,93.4,30.9
2026-06-28T10:19:40.204136,-31.82,27.0,185.8,93.4,30.9
2026-06-28T10:19:40.206128,-50.37,27.0,185.8,93.5,30.9
2026-06-28T10:19:40.311262,-35.34,27.0,185.8,93.5,30.9
2026-06-28T10:19:40.313143,-44.15,27.0,185.8,93.5,30.9
2026-06-28T10:19:40.315049,-20.74,27.0,185.8,93.5,30.9
2026-06-28T10:19:40.316729,-11.63,27.0,185.8,93.5,30.9
2026-06-28T10:19:40.318316,119.76,27.0,185.8,93.5,30.9
2026-06-28T10:19:40.355550,183.5,27.0,185.8,93.5,30.9
2026-06-28T10:19:40.357775,138.82,27.0,185.8,93.4,30.9
2026-06-28T10:19:40.403862,97.96,27.0,185.8,93.4,30.9
2026-06-28T10:19:40.405596,54.58,27.0,185.8,93.4,30.9
2026-06-28T10:19:40.456742,28.38,27.0,185.8,93.4,30.9
2026-06-28T10:19:40.458803,7.36,27.0,185.8,93.4,30.9
2026-06-28T10:19:40.460443,-8.47,27.0,185.8,93.4,30.9
2026-06-28T10:19:40.498851,-22.06,27.0,185.8,93.4,30.9
2026-06-28T10:19:40.500751,-1.96,27.0,185.8,93.4,30.9
2026-06-28T10:19:40.554215,-26.32,27.0,185.8,93.4,30.9
2026-06-28T10:19:40.556125,-12.23,27.0,185.8,93.4,30.9
2026-06-28T10:19:40.598735,-5.47,27.0,185.8,93.4,30.9
2026-06-28T10:19:40.600545,4.74,27.0,185.8,93.4,30.9
2026-06-28T10:19:40.641449,-30.99,27.0,185.8,93.4,30.9
2026-06-28T10:19:40.643434,-7.65,27.0,185.8,93.4,30.9
2026-06-28T10:19:40.690515,-3.02,27.0,185.8,93.4,30.9
2026-06-28T10:19:40.692424,-71.29,27.0,185.8,93.4,30.9
2026-06-28T10:19:40.694007,-19.49,27.0,185.8,93.4,30.9
2026-06-28T10:19:40.743257,4.61,27.0,185.8,93.4,30.9
2026-06-28T10:19:40.744997,5.35,27.0,185.8,93.4,30.9
2026-06-28T10:19:40.787543,-157.7,27.0,185.8,93.4,30.9
2026-06-28T10:19:40.790144,281.19,27.0,185.8,93.4,30.9
2026-06-28T10:19:40.842263,-275.19,27.0,185.8,93.4,30.9
2026-06-28T10:19:40.843958,-46.26,27.0,185.8,93.4,30.9
2026-06-28T10:19:40.884675,-15.34,27.0,185.8,93.4,30.9
2026-06-28T10:19:40.886652,-10.41,27.0,185.8,93.4,30.9
2026-06-28T10:19:40.934289,-20.16,27.0,185.8,93.5,30.9
2026-06-28T10:19:40.936305,-41.33,27.0,185.8,93.5,30.9
2026-06-28T10:19:40.988301,-27.14,27.0,185.8,93.5,30.9
2026-06-28T10:19:40.990083,-62.74,27.0,185.8,93.5,30.9
2026-06-28T10:19:40.991859,-36.26,27.0,185.8,93.5,30.9
2026-06-28T10:19:41.031799,-33.9,27.0,185.8,93.5,30.9
2026-06-28T10:19:41.033624,44.81,27.0,185.8,93.5,30.9
2026-06-28T10:19:41.093240,196.77,27.0,185.8,93.4,30.9
2026-06-28T10:19:41.094958,154.58,27.0,185.8,93.4,30.9
2026-06-28T10:19:41.132053,147.41,27.0,185.8,93.4,30.9
2026-06-28T10:19:41.133948,57.99,27.0,185.8,93.4,30.9
2026-06-28T10:19:41.187136,26.32,27.0,185.8,93.4,30.9
2026-06-28T10:19:41.189205,-43.23,27.0,185.8,93.4,30.9
2026-06-28T10:19:41.191031,-43.12,27.0,185.8,93.4,30.9
2026-06-28T10:19:41.230951,-35.15,27.0,185.8,93.4,30.9
2026-06-28T10:19:41.232703,-44.21,27.0,185.8,93.4,30.9
2026-06-28T10:19:41.276223,-17.14,27.0,185.8,93.4,30.9
2026-06-28T10:19:41.278114,-22.09,27.0,185.8,93.4,30.9
2026-06-28T10:19:41.324953,-7.27,27.0,185.8,93.4,30.9
2026-06-28T10:19:41.326680,-19.13,27.0,185.8,93.4,30.9
2026-06-28T10:19:41.377121,-32.53,27.0,185.8,93.4,30.9
2026-06-28T10:19:41.379152,-43.73,27.0,185.8,93.4,30.9
2026-06-28T10:19:41.433134,30.8,27.0,185.8,93.4,30.9
2026-06-28T10:19:41.436500,15.69,27.0,185.8,93.4,30.9
2026-06-28T10:19:41.438990,14.07,27.0,185.8,93.4,30.9
2026-06-28T10:19:41.503390,-95.69,27.0,185.8,93.4,30.9
2026-06-28T10:19:41.507249,196.01,27.0,185.8,93.4,30.9
2026-06-28T10:19:41.532649,-2.93,27.0,185.8,93.4,30.9
2026-06-28T10:19:41.534303,58.66,27.0,185.8,93.4,30.9
2026-06-28T10:19:41.574144,66.71,27.0,185.8,93.4,30.9
2026-06-28T10:19:41.575804,-30.01,27.0,185.8,93.4,30.9
2026-06-28T10:19:41.619768,-17.1,27.0,185.8,93.4,30.9
2026-06-28T10:19:41.621620,-62.11,27.0,185.8,93.4,30.9
2026-06-28T10:19:41.665184,-51.21,27.0,185.8,93.5,30.9
2026-06-28T10:19:41.683607,-60.81,27.0,185.8,93.5,30.9
2026-06-28T10:19:41.718997,-51.12,27.0,185.8,93.5,30.9
2026-06-28T10:19:41.765007,13.84,27.0,185.8,93.4,30.9
2026-06-28T10:19:41.767056,99.98,27.0,185.8,93.4,30.9
2026-06-28T10:19:41.768853,166.66,27.0,185.8,93.4,30.9
2026-06-28T10:19:41.770456,130.24,27.0,185.8,93.4,30.9
2026-06-28T10:19:41.825096,94.67,27.0,185.8,93.4,30.9
2026-06-28T10:19:41.826804,44.33,27.0,185.8,93.4,30.9
2026-06-28T10:19:41.864235,4.35,27.0,185.8,93.4,30.9
2026-06-28T10:19:41.865881,-37.94,27.0,185.8,93.4,30.9
2026-06-28T10:19:41.919359,-56.46,27.0,185.8,93.4,30.9
2026-06-28T10:19:41.921455,-16.82,27.0,185.8,93.4,30.9
2026-06-28T10:19:41.964141,-21.78,27.0,185.8,93.4,30.9
2026-06-28T10:19:41.966156,-21.13,27.0,185.8,93.4,30.9
2026-06-28T10:19:41.967870,-13.06,27.0,185.8,93.4,30.9
2026-06-28T10:19:42.008903,-18.09,27.0,185.8,93.4,30.9
2026-06-28T10:19:42.010773,-21.76,27.0,185.8,93.4,30.9
2026-06-28T10:19:42.059118,-62.44,27.0,185.8,93.4,30.9
2026-06-28T10:19:42.060794,-28.96,27.0,185.8,93.4,30.9
2026-06-28T10:19:42.109632,38.11,27.0,185.8,93.4,30.9
2026-06-28T10:19:42.111466,-10.26,27.0,185.8,93.4,30.9
2026-06-28T10:19:42.153484,-72.29,27.0,185.8,93.4,30.9
2026-06-28T10:19:42.155195,99.55,27.0,185.8,93.4,30.9
2026-06-28T10:19:42.209189,-226.5,27.0,185.8,93.4,30.9
2026-06-28T10:19:42.210975,-42.6,27.0,185.8,93.4,30.9
2026-06-28T10:19:42.212677,28.92,27.0,185.8,93.4,30.9
2026-06-28T10:19:42.252829,5.41,27.0,185.8,93.4,30.9
2026-06-28T10:19:42.254571,-39.83,27.0,185.8,93.5,30.9
2026-06-28T10:19:42.309195,-37.66,27.0,185.8,93.5,30.9
2026-06-28T10:19:42.311497,-51.32,27.0,185.8,93.5,30.9
2026-06-28T10:19:42.353283,-66.26,27.0,185.8,93.5,30.9
2026-06-28T10:19:42.355035,-66.75,27.0,185.8,93.5,30.9
2026-06-28T10:19:42.396544,-36.59,27.0,185.8,93.5,30.9
2026-06-28T10:19:42.454249,14.4,27.0,185.8,93.5,30.9
2026-06-28T10:19:42.494777,162.44,27.0,185.8,93.5,30.9
2026-06-28T10:19:42.496302,153.24,27.0,185.8,93.4,30.9
2026-06-28T10:19:42.497744,110.64,27.0,185.8,93.4,30.9
2026-06-28T10:19:42.499350,73.23,27.0,185.8,93.4,30.9
2026-06-28T10:19:42.517376,39.85,27.0,185.8,93.4,30.9
2026-06-28T10:19:42.543491,9.15,27.0,185.8,93.4,30.9
2026-06-28T10:19:42.562273,-37.52,27.0,185.8,93.4,30.9
2026-06-28T10:19:42.598613,-32.53,27.0,185.8,93.4,30.9
2026-06-28T10:19:42.600229,-51.67,27.0,185.8,93.4,30.9
2026-06-28T10:19:42.640709,-7.7,27.0,185.8,93.4,30.9
2026-06-28T10:19:42.642523,-52.96,27.0,185.8,93.4,30.9
2026-06-28T10:19:42.692287,-27.8,27.0,185.8,93.4,30.9
2026-06-28T10:19:42.694445,-25.33,27.0,185.8,93.4,30.9
2026-06-28T10:19:42.696232,-29.99,27.0,185.8,93.4,30.9
2026-06-28T10:19:42.744599,10.75,27.0,185.8,93.4,30.9
2026-06-28T10:19:42.746139,-69.56,27.0,185.8,93.4,30.9
2026-06-28T10:19:42.786931,-43.4,27.0,185.8,93.4,30.9
2026-06-28T10:19:42.788574,26.34,27.0,185.8,93.4,30.9
2026-06-28T10:19:42.840525,0.1,27.0,185.8,93.4,30.9
2026-06-28T10:19:42.842454,-64.67,27.0,185.8,93.5,30.9
2026-06-28T10:19:42.886583,20.6,27.0,185.8,93.5,30.9
2026-06-28T10:19:42.888684,42.33,27.0,185.8,93.5,30.9
2026-06-28T10:19:42.942373,34.34,27.0,185.8,93.5,30.9
2026-06-28T10:19:42.944323,46.09,27.0,185.8,93.5,30.9
2026-06-28T10:19:42.946045,19.27,27.0,185.8,93.5,30.9
2026-06-28T10:19:42.985735,32.79,27.0,185.8,93.5,30.9
2026-06-28T10:19:42.987474,-14.0,27.0,185.8,93.5,30.9
2026-06-28T10:19:43.031216,-12.91,27.0,185.8,93.5,30.9
2026-06-28T10:19:43.086364,-37.55,27.0,185.8,93.5,30.9
2026-06-28T10:19:43.088275,-39.42,27.0,185.8,93.5,30.9
2026-06-28T10:19:43.090048,-45.19,27.0,185.8,93.5,30.9
2026-06-28T10:19:43.127543,17.62,27.0,185.8,93.5,30.9
2026-06-28T10:19:43.128834,159.76,27.0,185.8,93.5,30.9
2026-06-28T10:19:43.176892,173.98,27.0,185.8,93.5,30.9
2026-06-28T10:19:43.197232,170.05,27.0,185.8,93.5,30.9
2026-06-28T10:19:43.199014,107.66,27.0,185.8,93.5,30.9
2026-06-28T10:19:43.231627,57.15,27.0,185.8,93.5,30.9
2026-06-28T10:19:43.274921,3.62,27.0,185.8,93.4,30.9
2026-06-28T10:19:43.276629,-13.38,27.0,185.8,93.4,30.9
2026-06-28T10:19:43.278446,-38.65,27.0,185.8,93.4,30.9
2026-06-28T10:19:43.330170,-41.48,27.0,185.8,93.4,30.9
2026-06-28T10:19:43.332092,-3.39,27.0,185.8,93.4,30.9
2026-06-28T10:19:43.421966,-40.76,27.0,185.8,93.4,30.9
2026-06-28T10:19:43.423887,8.87,27.0,185.8,93.4,30.9
2026-06-28T10:19:43.425378,-31.04,27.0,185.8,93.4,30.9
2026-06-28T10:19:43.426868,-30.02,27.0,185.8,93.4,30.9
2026-06-28T10:19:43.428133,-18.5,27.0,185.8,93.4,30.9
2026-06-28T10:19:43.474941,15.63,27.0,185.8,93.5,30.9
2026-06-28T10:19:43.476687,-47.57,27.0,185.8,93.5,30.9
2026-06-28T10:19:43.519812,-14.48,27.0,185.8,93.5,30.9
2026-06-28T10:19:43.521458,-53.67,27.0,185.8,93.5,30.9
2026-06-28T10:19:43.575048,-31.89,27.0,185.8,93.5,30.9
2026-06-28T10:19:43.577024,25.15,27.0,185.8,93.5,30.9
2026-06-28T10:19:43.618451,15.04,27.0,185.8,93.5,30.9
2026-06-28T10:19:43.620247,-11.96,27.0,185.8,93.5,30.9
2026-06-28T10:19:43.622039,-47.87,27.0,185.8,93.5,30.9
2026-06-28T10:19:43.666192,-125.11,27.0,185.8,93.5,30.9
2026-06-28T10:19:43.668036,16.19,27.0,185.8,93.5,30.9
2026-06-28T10:19:43.726317,8.47,27.0,185.8,93.5,30.9
2026-06-28T10:19:43.729151,1.95,27.0,185.8,93.5,30.9
2026-06-28T10:19:43.762187,18.55,27.0,185.8,93.5,30.9
2026-06-28T10:19:43.763772,-8.26,27.0,185.8,93.5,30.9
2026-06-28T10:19:43.810852,-13.19,27.0,185.8,93.5,30.9
2026-06-28T10:19:43.812663,-59.19,27.0,185.8,93.5,30.9
2026-06-28T10:19:43.864263,-59.54,27.0,185.8,93.5,30.9
2026-06-28T10:19:43.866157,-35.33,27.0,185.8,93.5,30.9
2026-06-28T10:19:43.868062,37.99,27.0,185.8,93.5,30.9
2026-06-28T10:19:43.907782,139.95,27.0,185.8,93.5,30.9
2026-06-28T10:19:43.909465,170.28,27.0,185.8,93.5,30.9
2026-06-28T10:19:43.965345,128.86,27.0,185.8,93.5,30.9
2026-06-28T10:19:43.967136,83.79,27.0,185.8,93.5,30.9
2026-06-28T10:19:44.007723,37.8,27.0,185.8,93.5,30.9
2026-06-28T10:19:44.009384,36.45,27.0,185.8,93.5,30.9
2026-06-28T10:19:44.063252,-44.51,27.0,185.8,93.5,30.9
2026-06-28T10:19:44.065083,-29.0,27.0,185.8,93.5,30.9
2026-06-28T10:19:44.108721,-62.48,27.0,185.8,93.5,30.9
2026-06-28T10:19:44.111020,-20.41,27.0,185.8,93.5,30.9
2026-06-28T10:19:44.112847,-49.15,27.06,185.8,93.5,30.9
2026-06-28T10:19:44.151495,-3.1,27.06,185.8,93.5,30.9
2026-06-28T10:19:44.153304,-28.29,27.06,185.8,93.5,30.9
2026-06-28T10:19:44.209749,5.18,27.06,185.8,93.5,30.9
2026-06-28T10:19:44.211841,-6.93,27.06,185.8,93.5,30.9
2026-06-28T10:19:44.248866,-18.02,27.06,185.8,93.5,30.9
2026-06-28T10:19:44.250344,-15.98,27.06,185.8,93.5,30.9
2026-06-28T10:19:44.297971,-33.32,27.06,185.8,93.5,30.9
2026-06-28T10:19:44.318253,-52.54,27.06,185.8,93.5,30.9
2026-06-28T10:19:44.320141,-7.71,27.06,185.8,93.5,30.9
2026-06-28T10:19:44.352904,23.27,27.06,185.8,93.5,30.9
2026-06-28T10:19:44.395505,-21.46,27.06,185.8,93.5,30.9
2026-06-28T10:19:44.397793,-189.91,27.06,185.8,93.5,30.9
2026-06-28T10:19:44.399587,219.94,27.06,185.8,93.5,30.9
2026-06-28T10:19:44.443820,-141.95,27.06,185.8,93.5,30.9
2026-06-28T10:19:44.445625,-6.83,27.06,185.8,93.5,30.9
2026-06-28T10:19:44.497089,-4.99,27.06,185.8,93.5,30.9
2026-06-28T10:19:44.499010,-8.7,27.06,185.8,93.5,30.9
2026-06-28T10:19:44.542411,16.32,27.06,185.8,93.5,30.9
2026-06-28T10:19:44.544232,-27.34,27.06,185.8,93.5,30.9
2026-06-28T10:19:44.597824,-59.56,27.06,185.8,93.5,30.9
2026-06-28T10:19:44.599695,-51.83,27.06,185.8,93.6,30.9
2026-06-28T10:19:44.601604,-68.97,27.06,185.8,93.6,30.9
2026-06-28T10:19:44.642611,-20.68,27.06,185.8,93.6,30.9
2026-06-28T10:19:44.644542,79.62,27.06,185.8,93.6,30.9
2026-06-28T10:19:44.696438,139.85,27.06,185.8,93.5,30.9
2026-06-28T10:19:44.698505,174.92,27.06,185.8,93.5,30.9
2026-06-28T10:19:44.741133,164.41,27.06,185.8,93.5,30.9
2026-06-28T10:19:44.742929,77.78,27.06,185.8,93.5,30.9
2026-06-28T10:19:44.786352,11.63,27.06,185.8,93.5,30.9
2026-06-28T10:19:44.788080,5.97,27.06,185.8,93.5,30.9
2026-06-28T10:19:44.807913,-29.04,27.06,185.8,93.5,30.9
2026-06-28T10:19:44.838075,-43.75,27.06,185.8,93.5,30.9
2026-06-28T10:19:44.839712,-17.97,27.06,185.8,93.5,30.9
2026-06-28T10:19:44.885232,-40.41,27.06,185.8,93.5,30.9
2026-06-28T10:19:44.887371,14.91,27.06,185.8,93.5,30.9
2026-06-28T10:19:44.941801,-4.93,27.06,185.8,93.5,30.9
2026-06-28T10:19:44.943528,20.75,27.06,185.8,93.5,30.9
2026-06-28T10:19:44.984994,23.06,27.06,185.8,93.5,30.9
2026-06-28T10:19:44.986660,0.63,27.06,185.8,93.5,30.9
2026-06-28T10:19:45.028807,-63.4,27.06,185.8,93.5,30.9
2026-06-28T10:19:45.030778,32.51,27.06,185.8,93.5,30.9
2026-06-28T10:19:45.032552,21.07,27.06,185.8,93.5,30.9
2026-06-28T10:19:45.086482,-25.77,27.06,185.8,93.5,30.9
2026-06-28T10:19:45.088437,-170.97,27.06,185.8,93.5,30.9
2026-06-28T10:19:45.134964,-52.41,27.06,185.8,93.5,30.9
2026-06-28T10:19:45.136603,74.7,27.06,185.8,93.5,30.9
2026-06-28T10:19:45.185157,78.73,27.06,185.8,93.5,30.9
2026-06-28T10:19:45.187024,10.53,27.06,185.8,93.5,30.9
2026-06-28T10:19:45.229601,-68.38,27.06,185.8,93.5,30.9
2026-06-28T10:19:45.231864,-120.72,27.06,185.8,93.5,30.9
2026-06-28T10:19:45.274279,-113.18,27.06,185.8,93.5,30.9
2026-06-28T10:19:45.276002,-100.32,27.06,185.8,93.5,30.9
2026-06-28T10:19:45.277901,-85.6,27.06,185.8,93.5,30.9
2026-06-28T10:19:45.323876,-69.24,27.06,185.8,93.6,30.9
2026-06-28T10:19:45.326309,-23.7,27.06,185.8,93.6,30.9
2026-06-28T10:19:45.406928,96.17,27.06,185.8,93.6,30.9
2026-06-28T10:19:45.409695,151.19,27.06,185.8,93.5,30.9
2026-06-28T10:19:45.431041,102.58,27.06,185.8,93.5,30.9
2026-06-28T10:19:45.432527,81.62,27.06,185.8,93.5,30.9
2026-06-28T10:19:45.474844,63.01,27.06,185.8,93.5,30.9
2026-06-28T10:19:45.476475,47.44,27.06,185.8,93.5,30.9
2026-06-28T10:19:45.519264,44.71,27.06,185.8,93.5,30.9
2026-06-28T10:19:45.520974,12.87,27.06,185.8,93.5,30.9
2026-06-28T10:19:45.522730,8.63,27.06,185.8,93.5,30.9
2026-06-28T10:19:45.595185,5.48,27.06,185.8,93.5,30.9
2026-06-28T10:19:45.597583,48.63,27.06,185.8,93.5,30.9
2026-06-28T10:19:45.622375,-13.0,27.06,185.8,93.5,30.9
2026-06-28T10:19:45.624270,-17.82,27.06,185.8,93.5,30.9
2026-06-28T10:19:45.664059,-49.54,27.06,185.8,93.5,30.9
2026-06-28T10:19:45.665700,-14.6,27.06,185.8,93.5,30.9
2026-06-28T10:19:45.717903,57.44,27.06,185.8,93.5,30.9
2026-06-28T10:19:45.719716,69.02,27.06,185.8,93.5,30.9
2026-06-28T10:19:45.763090,-118.17,27.06,185.8,93.5,30.9
2026-06-28T10:19:45.764821,29.3,27.06,185.8,93.5,30.9
2026-06-28T10:19:45.766673,-113.45,27.06,185.8,93.5,30.9
2026-06-28T10:19:45.812982,37.3,27.06,185.8,93.5,30.9
2026-06-28T10:19:45.814819,32.6,27.06,185.8,93.5,30.9
2026-06-28T10:19:45.862918,-6.04,27.06,185.8,93.5,30.9
2026-06-28T10:19:45.865140,-38.81,27.06,185.8,93.5,30.9
2026-06-28T10:19:45.907796,-56.61,27.06,185.8,93.5,30.9
2026-06-28T10:19:45.909890,-62.7,27.06,185.8,93.5,30.9
2026-06-28T10:19:45.969182,-72.82,27.06,185.8,93.5,30.9
2026-06-28T10:19:45.977464,-59.95,27.06,185.8,93.6,30.9
2026-06-28T10:19:46.002982,-15.15,27.06,185.8,93.6,30.9
2026-06-28T10:19:46.004858,97.22,27.06,185.8,93.6,30.9
2026-06-28T10:19:46.006345,117.69,27.06,185.8,93.5,30.9
2026-06-28T10:19:46.052795,127.95,27.06,185.8,93.5,30.9
2026-06-28T10:19:46.077004,66.53,27.06,185.8,93.5,30.9
2026-06-28T10:19:46.103642,20.52,27.06,185.8,93.5,30.9
2026-06-28T10:19:46.150773,-7.17,27.06,185.8,93.5,30.9
2026-06-28T10:19:46.152823,-42.34,27.06,185.8,93.5,30.9
2026-06-28T10:19:46.154796,-64.27,27.06,185.8,93.5,30.9
2026-06-28T10:19:46.205748,-30.19,27.06,185.8,93.5,30.9
2026-06-28T10:19:46.207800,-44.52,27.06,185.8,93.5,30.9
2026-06-28T10:19:46.251895,9.57,27.06,185.8,93.5,30.9
2026-06-28T10:19:46.259002,-12.67,27.06,185.8,93.5,30.9
2026-06-28T10:19:46.260947,-33.48,27.06,185.8,93.5,30.9
2026-06-28T10:19:46.297095,-63.35,27.06,185.8,93.5,30.9
2026-06-28T10:19:46.299042,-93.56,27.06,185.8,93.5,30.9
2026-06-28T10:19:46.351953,-37.16,27.06,185.8,93.5,30.9
2026-06-28T10:19:46.353880,-29.99,27.06,185.8,93.5,30.9
2026-06-28T10:19:46.397921,18.74,27.06,185.8,93.5,30.9
2026-06-28T10:19:46.399657,-76.13,27.06,185.8,93.5,30.9
2026-06-28T10:19:46.444001,23.14,27.06,185.8,93.5,30.9
2026-06-28T10:19:46.446259,-130.67,27.06,185.8,93.5,30.9
2026-06-28T10:19:46.496317,75.66,27.06,185.8,93.5,30.9
2026-06-28T10:19:46.498050,62.04,27.06,185.8,93.5,30.9
2026-06-28T10:19:46.540429,11.52,27.06,185.8,93.5,30.9
2026-06-28T10:19:46.542064,-12.72,27.06,185.8,93.5,30.9
2026-06-28T10:19:46.543721,-42.15,27.06,185.8,93.5,30.9
2026-06-28T10:19:46.596676,-64.07,27.06,185.8,93.5,30.9
2026-06-28T10:19:46.598522,-94.68,27.06,185.8,93.5,30.9
2026-06-28T10:19:46.639671,-61.72,27.06,185.8,93.5,30.9
2026-06-28T10:19:46.641326,-51.92,27.06,185.8,93.5,30.9
2026-06-28T10:19:46.690641,92.56,27.06,185.8,93.5,30.9
2026-06-28T10:19:46.739905,185.36,27.06,185.8,93.5,30.9
2026-06-28T10:19:46.741926,194.0,27.06,185.8,93.5,30.9
2026-06-28T10:19:46.743756,115.91,27.06,185.8,93.5,30.9
2026-06-28T10:19:46.763308,63.17,27.06,185.8,93.5,30.9
2026-06-28T10:19:46.842121,58.0,27.06,185.8,93.5,30.9
2026-06-28T10:19:46.844252,-5.51,27.06,185.8,93.5,30.9
2026-06-28T10:19:46.846094,-32.94,27.06,185.8,93.5,30.9
2026-06-28T10:19:46.847626,-71.7,27.06,185.8,93.5,30.9
2026-06-28T10:19:46.891829,-76.9,27.06,185.8,93.5,30.9
2026-06-28T10:19:46.929695,-80.05,27.06,185.8,93.5,30.9
2026-06-28T10:19:46.931287,-43.03,27.06,185.8,93.5,30.9
2026-06-28T10:19:46.949286,-59.17,27.06,185.8,93.5,30.9
2026-06-28T10:19:46.984665,-23.46,27.06,185.8,93.5,30.9
2026-06-28T10:19:46.986273,-46.18,27.06,185.8,93.5,30.9
2026-06-28T10:19:47.028832,-24.37,27.06,185.8,93.5,30.9
2026-06-28T10:19:47.030872,47.29,27.06,185.8,93.5,30.9
2026-06-28T10:19:47.032785,39.2,27.06,185.8,93.5,30.9
2026-06-28T10:19:47.084436,-133.15,27.06,185.8,93.5,30.9
2026-06-28T10:19:47.086373,-61.44,27.06,185.8,93.5,30.9
2026-06-28T10:19:47.125462,-119.46,27.06,185.8,93.5,30.9
2026-06-28T10:19:47.127258,52.82,27.06,185.8,93.5,30.9
2026-06-28T10:19:47.172964,67.23,27.06,185.8,93.5,30.9
2026-06-28T10:19:47.174866,47.55,27.06,185.8,93.5,30.9
2026-06-28T10:19:47.229613,46.62,27.06,185.8,93.5,30.9
2026-06-28T10:19:47.231359,-36.78,27.06,185.8,93.5,30.9
2026-06-28T10:19:47.233067,-90.18,27.06,185.8,93.5,30.9
2026-06-28T10:19:47.272785,-75.95,27.06,185.8,93.5,30.9
2026-06-28T10:19:47.274835,-69.36,27.06,185.8,93.5,30.9
2026-06-28T10:19:47.323039,-28.97,27.06,185.8,93.5,30.9
2026-06-28T10:19:47.324886,44.98,27.06,185.8,93.5,30.9
2026-06-28T10:19:47.372288,226.33,27.06,185.8,93.5,30.9
2026-06-28T10:19:47.374142,166.34,27.06,185.8,93.5,30.9
2026-06-28T10:19:47.417719,145.64,27.06,185.8,93.5,30.9
2026-06-28T10:19:47.419491,50.04,27.06,185.8,93.5,30.9
2026-06-28T10:19:47.474854,20.63,27.06,185.8,93.5,30.9
2026-06-28T10:19:47.476720,-51.69,27.06,185.8,93.5,30.9
2026-06-28T10:19:47.478513,-64.75,27.06,185.8,93.5,30.9
2026-06-28T10:19:47.515397,-38.33,27.06,185.8,93.5,30.9
2026-06-28T10:19:47.516798,-51.81,27.06,185.8,93.5,30.9
2026-06-28T10:19:47.563495,0.79,27.06,185.8,93.5,30.9
2026-06-28T10:19:47.584199,-11.06,27.06,185.8,93.5,30.9
2026-06-28T10:19:47.617300,0.94,27.06,185.8,93.5,30.9
2026-06-28T10:19:47.619216,-13.38,27.06,185.8,93.5,30.9
2026-06-28T10:19:47.662860,-92.26,27.06,185.8,93.5,30.9
2026-06-28T10:19:47.664610,-62.94,27.06,185.8,93.5,30.9
2026-06-28T10:19:47.722584,8.33,27.06,185.8,93.5,30.9
2026-06-28T10:19:47.724336,2.14,27.06,185.8,93.5,30.9
2026-06-28T10:19:47.726,-59.49,27.06,185.8,93.5,30.9
2026-06-28T10:19:47.761562,-68.37,27.06,185.8,93.5,30.9
2026-06-28T10:19:47.763153,-131.46,27.06,185.8,93.5,30.9
2026-06-28T10:19:47.807053,51.17,27.06,185.8,93.5,30.9
2026-06-28T10:19:47.808915,60.91,27.06,185.8,93.5,30.9
2026-06-28T10:19:47.861851,22.36,27.06,185.8,93.5,30.9
2026-06-28T10:19:47.863619,-22.92,27.06,185.8,93.5,30.9
2026-06-28T10:19:47.906965,-20.11,27.06,185.8,93.5,30.9
2026-06-28T10:19:47.908660,-38.1,27.06,185.8,93.5,30.9
2026-06-28T10:19:47.964351,-75.79,27.06,185.8,93.5,30.9
2026-06-28T10:19:47.966184,-60.7,27.06,185.8,93.6,30.9
2026-06-28T10:19:47.967852,-49.19,27.06,185.8,93.6,30.9
2026-06-28T10:19:48.007133,16.35,27.06,185.8,93.6,30.9
2026-06-28T10:19:48.009044,194.6,27.06,185.8,93.5,30.9
2026-06-28T10:19:48.051784,187.07,27.06,185.8,93.5,30.9
2026-06-28T10:19:48.053825,205.78,27.06,185.8,93.5,30.9
2026-06-28T10:19:48.107934,151.09,27.06,185.8,93.5,30.9
2026-06-28T10:19:48.157274,71.07,27.06,185.8,93.5,30.9
2026-06-28T10:19:48.158944,-10.01,27.06,185.8,93.5,30.9
2026-06-28T10:19:48.160506,-20.02,27.06,185.8,93.5,30.9
2026-06-28T10:19:48.197906,-89.76,27.06,185.8,93.5,30.9
2026-06-28T10:19:48.199630,-48.76,27.06,185.8,93.5,30.9
2026-06-28T10:19:48.201198,-58.04,27.06,185.8,93.5,30.9
2026-06-28T10:19:48.251052,-27.14,27.06,185.8,93.5,30.9
2026-06-28T10:19:48.252804,-34.61,27.06,185.8,93.5,30.9
2026-06-28T10:19:48.296755,-20.95,27.06,185.8,93.5,30.9
2026-06-28T10:19:48.298526,-92.43,27.06,185.8,93.5,30.9
2026-06-28T10:19:48.351777,-69.79,27.06,185.8,93.5,30.9
2026-06-28T10:19:48.353649,-23.48,27.06,185.8,93.5,30.9
2026-06-28T10:19:48.400050,-24.44,27.06,185.8,93.5,30.9
2026-06-28T10:19:48.401729,-9.0,27.06,185.8,93.5,30.9
2026-06-28T10:19:48.450928,-106.72,27.06,185.8,93.5,30.9
2026-06-28T10:19:48.495690,139.33,27.06,185.8,93.5,30.9
2026-06-28T10:19:48.497785,13.62,27.06,185.8,93.5,30.9
2026-06-28T10:19:48.499554,96.9,27.06,185.8,93.5,30.9
2026-06-28T10:19:48.501012,58.96,27.06,185.8,93.5,30.9
2026-06-28T10:19:48.539039,10.82,27.06,185.8,93.5,30.9
2026-06-28T10:19:48.540665,6.58,27.06,185.8,93.5,30.9
2026-06-28T10:19:48.602497,-20.8,27.06,185.8,93.5,30.9
2026-06-28T10:19:48.604120,-39.74,27.06,185.8,93.5,30.9
2026-06-28T10:19:48.639701,-71.02,27.06,185.8,93.5,30.9
2026-06-28T10:19:48.641221,-54.82,27.06,185.8,93.5,30.9
2026-06-28T10:19:48.695336,-28.73,27.06,185.8,93.5,30.9
2026-06-28T10:19:48.697237,82.32,27.06,185.8,93.5,30.9
2026-06-28T10:19:48.699188,143.23,27.06,185.8,93.5,30.9
2026-06-28T10:19:48.740450,163.39,27.06,185.8,93.5,30.9
2026-06-28T10:19:48.742188,95.5,27.06,185.8,93.5,30.9
2026-06-28T10:19:48.789814,42.75,27.06,185.8,93.5,30.9
2026-06-28T10:19:48.791437,-4.67,27.06,185.8,93.5,30.9
2026-06-28T10:19:48.832446,-33.17,27.06,185.8,93.5,30.9
2026-06-28T10:19:48.886533,-35.57,27.06,185.8,93.5,30.9
2026-06-28T10:19:48.888501,-23.42,27.06,185.8,93.5,30.9
2026-06-28T10:19:48.890233,16.94,27.06,185.8,93.5,30.9
2026-06-28T10:19:48.891628,41.86,27.06,185.8,93.5,30.9
2026-06-28T10:19:48.928294,43.47,27.06,185.8,93.5,30.9
2026-06-28T10:19:48.930115,-45.32,27.06,185.8,93.5,30.9
2026-06-28T10:19:48.989425,-57.1,27.06,185.8,93.5,30.9
2026-06-28T10:19:48.991416,-45.29,27.06,185.8,93.5,30.9
2026-06-28T10:19:49.029696,-1.08,27.06,185.8,93.5,30.9
2026-06-28T10:19:49.031309,-20.87,27.06,185.8,93.5,30.9
2026-06-28T10:19:49.075224,-132.06,27.06,185.8,93.5,30.9
2026-06-28T10:19:49.095762,-116.7,27.06,185.8,93.5,30.9
2026-06-28T10:19:49.124744,-24.67,27.06,185.8,93.5,30.9
2026-06-28T10:19:49.126737,43.77,27.06,185.8,93.5,30.9
2026-06-28T10:19:49.174630,-3.93,27.06,185.8,93.5,30.9
2026-06-28T10:19:49.178537,8.48,27.06,185.8,93.5,30.9
2026-06-28T10:19:49.181242,16.78,27.06,185.8,93.5,30.9
2026-06-28T10:19:49.229436,-13.69,27.06,185.8,93.5,30.9
2026-06-28T10:19:49.231322,-28.53,27.06,185.8,93.5,30.9
2026-06-28T10:19:49.274148,-43.37,27.06,185.8,93.5,30.9
2026-06-28T10:19:49.275928,-37.44,27.06,185.8,93.5,30.9
2026-06-28T10:19:49.353079,-5.68,27.06,185.8,93.5,30.9
2026-06-28T10:19:49.355262,99.63,27.06,185.8,93.5,30.9
2026-06-28T10:19:49.385746,128.48,27.06,185.8,93.5,30.9
2026-06-28T10:19:49.416320,92.46,27.06,185.8,93.5,30.9
2026-06-28T10:19:49.419599,56.27,27.06,185.8,93.5,30.9
2026-06-28T10:19:49.422117,53.09,27.06,185.8,93.5,30.9
2026-06-28T10:19:49.441444,36.47,27.06,185.8,93.5,30.9
2026-06-28T10:19:49.471048,51.95,27.06,185.8,93.5,30.9
2026-06-28T10:19:49.472783,-47.0,27.06,185.8,93.5,30.9
2026-06-28T10:19:49.517131,-26.5,27.06,185.8,93.5,30.9
2026-06-28T10:19:49.519228,-48.93,27.06,185.8,93.5,30.9
2026-06-28T10:19:49.562341,-64.25,27.06,185.8,93.5,30.9
2026-06-28T10:19:49.564090,-61.61,27.06,185.8,93.5,30.9
2026-06-28T10:19:49.617816,-36.44,27.06,185.8,93.5,30.9
2026-06-28T10:19:49.619639,-83.23,27.06,185.8,93.5,30.9
2026-06-28T10:19:49.678023,-58.75,27.06,185.8,93.5,30.9
2026-06-28T10:19:49.681923,27.83,27.06,185.8,93.5,30.9
2026-06-28T10:19:49.685911,49.57,27.06,185.8,93.5,30.9
2026-06-28T10:19:49.719831,-9.0,27.06,185.8,93.5,30.9
2026-06-28T10:19:49.721566,-22.08,27.06,185.8,93.5,30.9
2026-06-28T10:19:49.761851,-103.37,27.06,185.8,93.5,30.9
2026-06-28T10:19:49.763551,27.95,27.06,185.8,93.5,30.9
2026-06-28T10:19:49.806555,60.76,27.06,185.8,93.5,30.9
2026-06-28T10:19:49.808170,33.37,27.06,185.8,93.5,30.9
2026-06-28T10:19:49.862354,25.23,27.06,185.8,93.5,30.9
2026-06-28T10:19:49.863962,-49.89,27.06,185.8,93.5,30.9
2026-06-28T10:19:49.905786,-8.18,27.06,185.8,93.5,30.9
2026-06-28T10:19:49.952309,-34.63,27.06,185.8,93.5,30.9
2026-06-28T10:19:49.970540,-56.83,27.06,185.8,93.5,30.9
2026-06-28T10:19:49.972207,-44.25,27.06,185.8,93.6,30.9
2026-06-28T10:19:49.973831,53.31,27.06,185.8,93.6,30.9
2026-06-28T10:19:50.007554,169.77,27.06,185.8,93.6,30.9
2026-06-28T10:19:50.009157,167.02,27.06,185.8,93.5,30.9
2026-06-28T10:19:50.050221,160.84,27.06,185.8,93.5,30.9
2026-06-28T10:19:50.051985,67.53,27.06,185.8,93.5,30.9
2026-06-28T10:19:50.106417,58.69,27.06,185.8,93.5,30.9
2026-06-28T10:19:50.108371,5.36,27.06,185.8,93.5,30.9
2026-06-28T10:19:50.153829,-17.45,27.06,185.8,93.5,30.9
2026-06-28T10:19:50.195938,-86.55,27.06,185.8,93.5,30.9
2026-06-28T10:19:50.197674,-80.63,27.06,185.8,93.5,30.9
2026-06-28T10:19:50.199539,-45.88,27.06,185.8,93.5,30.9
2026-06-28T10:19:50.219054,-26.13,27.06,185.8,93.5,30.9
2026-06-28T10:19:50.246978,-8.55,27.06,185.8,93.5,30.9
2026-06-28T10:19:50.248517,-12.54,27.06,185.8,93.5,30.9
2026-06-28T10:19:50.294724,-32.83,27.06,185.8,93.5,30.9
2026-06-28T10:19:50.296896,-54.96,27.06,185.8,93.5,30.9
2026-06-28T10:19:50.345151,2.67,27.06,185.8,93.5,30.9
2026-06-28T10:19:50.346887,-27.36,27.06,185.8,93.5,30.9
2026-06-28T10:19:50.395696,-38.84,27.06,185.8,93.5,30.9
2026-06-28T10:19:50.397645,-171.92,27.06,185.8,93.5,30.9
2026-06-28T10:19:50.399267,93.39,27.06,185.8,93.5,30.9
2026-06-28T10:19:50.439780,-130.86,27.06,185.8,93.5,30.9
2026-06-28T10:19:50.441726,2.42,27.06,185.8,93.5,30.9
2026-06-28T10:19:50.495411,28.37,27.06,185.8,93.5,30.9
2026-06-28T10:19:50.497310,-20.44,27.06,185.8,93.5,30.9
2026-06-28T10:19:50.537142,20.73,27.06,185.8,93.5,30.9
2026-06-28T10:19:50.538640,-41.44,27.06,185.8,93.5,30.9
2026-06-28T10:19:50.595421,-6.57,27.06,185.8,93.5,30.9
2026-06-28T10:19:50.597402,-60.76,27.06,185.8,93.6,30.9
2026-06-28T10:19:50.639239,-37.15,27.06,185.8,93.6,30.9
2026-06-28T10:19:50.683271,-17.17,27.06,185.8,93.6,30.9
2026-06-28T10:19:50.685784,81.34,27.06,185.8,93.5,30.9
2026-06-28T10:19:50.687338,130.87,27.06,185.8,93.5,30.9
2026-06-28T10:19:50.704441,125.4,27.06,185.8,93.5,30.9
2026-06-28T10:19:50.732606,107.59,27.06,185.8,93.5,30.9
2026-06-28T10:19:50.734881,10.09,27.06,185.8,93.5,30.9
2026-06-28T10:19:50.783604,44.44,27.06,185.8,93.5,30.9
2026-06-28T10:19:50.785651,15.37,27.06,185.8,93.5,30.9
2026-06-28T10:19:50.839507,10.36,27.06,185.8,93.5,30.9
2026-06-28T10:19:50.841783,-9.85,27.06,185.8,93.5,30.9
2026-06-28T10:19:50.883041,30.58,27.06,185.8,93.5,30.9
2026-06-28T10:19:50.884700,26.65,27.06,185.8,93.5,30.9
2026-06-28T10:19:50.933494,11.89,27.06,185.8,93.5,30.9
2026-06-28T10:19:50.935302,-11.33,27.06,185.8,93.5,30.9
2026-06-28T10:19:50.937156,-35.04,27.06,185.8,93.5,30.9
2026-06-28T10:19:50.983345,-34.73,27.06,185.8,93.5,30.9
2026-06-28T10:19:50.985717,-41.03,27.06,185.8,93.5,30.9
2026-06-28T10:19:51.027584,-47.46,27.06,185.8,93.5,30.9
2026-06-28T10:19:51.029351,-6.76,27.06,185.8,93.5,30.9
2026-06-28T10:19:51.083731,13.56,27.06,185.8,93.5,30.9
2026-06-28T10:19:51.087449,-5.89,27.06,185.8,93.5,30.9
2026-06-28T10:19:51.130470,-142.2,27.06,185.8,93.5,30.9
2026-06-28T10:19:51.133437,209.0,27.06,185.8,93.5,30.9
2026-06-28T10:19:51.136532,4.37,27.06,185.8,93.5,30.9
2026-06-28T10:19:51.174986,-18.94,27.06,185.8,93.5,30.9
2026-06-28T10:19:51.176600,27.51,27.06,185.8,93.5,30.9
2026-06-28T10:19:51.221113,-1.41,27.06,185.8,93.5,30.9
2026-06-28T10:19:51.222802,-32.38,27.06,185.8,93.5,30.9
2026-06-28T10:19:51.273782,-37.05,27.06,185.8,93.5,30.9
2026-06-28T10:19:51.275637,-39.41,27.06,185.8,93.5,30.9
2026-06-28T10:19:51.318205,-56.54,27.06,185.8,93.6,30.9
2026-06-28T10:19:51.320427,-56.23,27.06,185.8,93.6,30.9
2026-06-28T10:19:51.372904,-22.38,27.06,185.8,93.6,30.9
2026-06-28T10:19:51.374789,33.65,27.06,185.8,93.6,30.9
2026-06-28T10:19:51.415506,127.89,27.06,185.8,93.5,30.9
2026-06-28T10:19:51.417047,162.13,27.06,185.8,93.5,30.9
2026-06-28T10:19:51.418582,115.28,27.06,185.8,93.5,30.9
2026-06-28T10:19:51.464330,63.89,27.06,185.8,93.5,30.9
2026-06-28T10:19:51.519394,33.91,27.06,185.8,93.5,30.9
2026-06-28T10:19:51.521605,38.47,27.06,185.8,93.5,30.9
2026-06-28T10:19:51.523672,-18.28,27.06,185.8,93.5,30.9
2026-06-28T10:19:51.561200,-44.67,27.06,185.8,93.5,30.9
2026-06-28T10:19:51.563172,-24.83,27.06,185.8,93.5,30.9
2026-06-28T10:19:51.616711,-56.84,27.06,185.8,93.5,30.9
2026-06-28T10:19:51.618647,-34.48,27.06,185.8,93.5,30.9
2026-06-28T10:19:51.660548,-46.37,27.06,185.8,93.5,30.9
2026-06-28T10:19:51.717403,-85.33,27.06,185.8,93.5,30.9
2026-06-28T10:19:51.719280,-80.42,27.06,185.8,93.5,30.9
2026-06-28T10:19:51.721017,22.92,27.06,185.8,93.5,30.9
2026-06-28T10:19:51.739615,6.54,27.06,185.8,93.5,30.9
2026-06-28T10:19:51.768907,-34.67,27.06,185.8,93.5,30.9
2026-06-28T10:19:51.770568,-141.93,27.06,185.8,93.5,30.9
2026-06-28T10:19:51.805631,-103.59,27.06,185.8,93.5,30.9
2026-06-28T10:19:51.807518,24.0,27.06,185.8,93.5,30.9
2026-06-28T10:19:51.861327,91.96,27.06,185.8,93.5,30.9
2026-06-28T10:19:51.863257,54.46,27.06,185.8,93.5,30.9
2026-06-28T10:19:51.905908,28.12,27.06,185.8,93.5,30.9
2026-06-28T10:19:51.907667,-32.2,27.06,185.8,93.5,30.9
2026-06-28T10:19:51.909550,-38.39,27.06,185.8,93.5,30.9
2026-06-28T10:19:51.951840,-99.08,27.06,185.8,93.6,30.9
2026-06-28T10:19:51.970312,-104.59,27.06,185.8,93.6,30.9
2026-06-28T10:19:52.000329,-91.15,27.06,185.8,93.6,30.9
2026-06-28T10:19:52.001917,-55.58,27.06,185.8,93.5,30.9
2026-06-28T10:19:52.049092,5.53,27.06,185.8,93.5,30.9
2026-06-28T10:19:52.051020,118.68,27.06,185.8,93.5,30.9
2026-06-28T10:19:52.105407,108.38,27.06,185.8,93.5,30.9
2026-06-28T10:19:52.107390,113.11,27.06,185.8,93.5,30.9
2026-06-28T10:19:52.150699,101.67,27.06,185.8,93.5,30.9
2026-06-28T10:19:52.152406,83.09,27.06,185.8,93.5,30.9
2026-06-28T10:19:52.154223,49.25,27.06,185.8,93.5,30.9
2026-06-28T10:19:52.195212,33.8,27.06,185.8,93.5,30.9
2026-06-28T10:19:52.249642,28.38,27.06,185.8,93.5,30.9
2026-06-28T10:19:52.251332,12.32,27.06,185.8,93.5,30.9
2026-06-28T10:19:52.252933,39.26,27.06,185.8,93.5,30.9
2026-06-28T10:19:52.294524,-10.11,27.06,185.8,93.5,30.9
2026-06-28T10:19:52.296474,-0.58,27.06,185.8,93.5,30.9
2026-06-28T10:19:52.342052,-44.83,27.06,185.8,93.5,30.9
2026-06-28T10:19:52.359676,31.75,27.06,185.8,93.5,30.9
2026-06-28T10:19:52.389006,23.68,27.06,185.8,93.5,30.9
2026-06-28T10:19:52.440680,-37.76,27.06,185.8,93.5,30.9
2026-06-28T10:19:52.442601,8.02,27.06,185.8,93.5,30.9
2026-06-28T10:19:52.444032,-185.86,27.06,185.8,93.5,30.9
2026-06-28T10:19:52.447862,85.91,27.06,185.8,93.5,30.9
2026-06-28T10:19:52.494958,105.71,27.06,185.8,93.5,30.9
2026-06-28T10:19:52.496801,44.16,27.06,185.8,93.5,30.9
2026-06-28T10:19:52.536059,-2.57,27.06,185.8,93.5,30.9
2026-06-28T10:19:52.538470,-28.19,27.06,185.8,93.5,30.9
2026-06-28T10:19:52.594341,-62.66,27.06,185.8,93.5,30.9
2026-06-28T10:19:52.596133,-109.43,27.06,185.8,93.6,30.9
2026-06-28T10:19:52.640290,-102.1,27.06,185.8,93.6,30.9
2026-06-28T10:19:52.641981,-92.69,27.06,185.8,93.6,30.9
2026-06-28T10:19:52.643566,-36.4,27.06,185.8,93.5,30.9
2026-06-28T10:19:52.682895,103.18,27.06,185.8,93.5,30.9
2026-06-28T10:19:52.684655,141.63,27.06,185.8,93.5,30.9
2026-06-28T10:19:52.783571,86.66,27.06,185.8,93.5,30.9
2026-06-28T10:19:52.830245,66.36,27.06,185.8,93.5,30.9
2026-06-28T10:19:52.831838,38.33,27.06,185.8,93.5,30.9
2026-06-28T10:19:52.849179,-0.89,27.06,185.8,93.5,30.9
2026-06-28T10:19:52.851030,-33.01,27.06,185.8,93.5,30.9
2026-06-28T10:19:52.852574,-74.32,27.06,185.8,93.5,30.9
2026-06-28T10:19:52.882586,-56.18,27.06,185.8,93.5,30.9
2026-06-28T10:19:52.884174,-22.86,27.06,185.8,93.5,30.9
2026-06-28T10:19:52.885843,-22.04,27.06,185.8,93.5,30.9
2026-06-28T10:19:52.926615,-17.96,27.06,185.8,93.5,30.9
2026-06-28T10:19:52.928352,4.86,27.06,185.8,93.5,30.9
2026-06-28T10:19:52.988262,-34.12,27.06,185.8,93.5,30.9
2026-06-28T10:19:52.989955,-77.77,27.06,185.8,93.5,30.9
2026-06-28T10:19:53.028134,40.51,27.06,185.8,93.5,30.9
2026-06-28T10:19:53.029754,3.51,27.06,185.8,93.5,30.9
2026-06-28T10:19:53.072738,8.55,27.06,185.8,93.5,30.9
2026-06-28T10:19:53.074636,-199.74,27.06,185.8,93.5,30.9
2026-06-28T10:19:53.128380,102.7,27.06,185.8,93.5,30.9
2026-06-28T10:19:53.130064,-117.93,27.06,185.8,93.5,30.9
2026-06-28T10:19:53.170844,21.6,27.06,185.8,93.5,30.9
2026-06-28T10:19:53.172653,29.7,27.06,185.8,93.5,30.9
2026-06-28T10:19:53.174376,11.9,27.06,185.8,93.5,30.9
2026-06-28T10:19:53.226783,0.86,27.06,185.8,93.5,30.9
2026-06-28T10:19:53.228671,-24.7,27.06,185.8,93.6,30.9
2026-06-28T10:19:53.271513,-4.85,27.06,185.8,93.6,30.9
2026-06-28T10:19:53.273167,-64.47,27.06,185.8,93.6,30.9
2026-06-28T10:19:53.317361,-39.8,27.06,185.8,93.6,30.9
2026-06-28T10:19:53.319290,-11.64,27.06,185.8,93.6,30.9
2026-06-28T10:19:53.379378,109.9,27.06,185.8,93.6,30.9
2026-06-28T10:19:53.387093,181.71,27.06,185.8,93.6,30.9
2026-06-28T10:19:53.389388,163.74,27.06,185.8,93.5,30.9
2026-06-28T10:19:53.414017,132.46,27.06,185.8,93.5,30.9
2026-06-28T10:19:53.415483,76.8,27.06,185.8,93.5,30.9
2026-06-28T10:19:53.463374,49.21,27.06,185.8,93.5,30.9
2026-06-28T10:19:53.465348,-34.04,27.06,185.8,93.5,30.9
2026-06-28T10:19:53.517398,-20.1,27.06,185.8,93.5,30.9
2026-06-28T10:19:53.519609,-34.27,27.06,185.8,93.5,30.9
2026-06-28T10:19:53.560592,-11.77,27.06,185.8,93.5,30.9
2026-06-28T10:19:53.562441,-34.52,27.06,185.8,93.5,30.9
2026-06-28T10:19:53.616995,-31.56,27.06,185.8,93.5,30.9
2026-06-28T10:19:53.618986,-31.44,27.06,185.8,93.5,30.9
2026-06-28T10:19:53.620592,-29.55,27.06,185.8,93.5,30.9
2026-06-28T10:19:53.660559,-49.77,27.06,185.8,93.5,30.9
2026-06-28T10:19:53.662203,-12.34,27.06,185.8,93.5,30.9
2026-06-28T10:19:53.705613,32.5,27.06,185.8,93.5,30.9
2026-06-28T10:19:53.707502,-7.34,27.06,185.8,93.5,30.9
2026-06-28T10:19:53.759635,-105.54,27.06,185.8,93.5,30.9
2026-06-28T10:19:53.804365,116.33,27.06,185.8,93.5,30.9
2026-06-28T10:19:53.806344,-240.21,27.06,185.8,93.5,30.9
2026-06-28T10:19:53.808098,35.14,27.06,185.8,93.5,30.9
2026-06-28T10:19:53.859889,-12.24,27.06,185.8,93.5,30.9
2026-06-28T10:19:53.861631,-9.8,27.06,185.8,93.6,30.9
2026-06-28T10:19:53.908121,-27.44,27.06,185.8,93.6,30.9
2026-06-28T10:19:53.910115,-12.92,27.06,185.8,93.6,30.9
2026-06-28T10:19:53.911806,-52.24,27.06,185.8,93.6,30.9
2026-06-28T10:19:53.960027,-48.55,27.06,185.8,93.6,30.9
2026-06-28T10:19:53.962033,-54.78,27.06,185.8,93.6,30.9
2026-06-28T10:19:54.004412,-23.91,27.06,185.8,93.6,30.9
2026-06-28T10:19:54.011121,54.05,27.06,185.8,93.5,30.9
2026-06-28T10:19:54.050402,167.25,27.06,185.8,93.5,30.9
2026-06-28T10:19:54.052029,185.12,27.06,185.8,93.5,30.9
2026-06-28T10:19:54.096896,117.07,27.06,185.8,93.5,30.9
2026-06-28T10:19:54.150074,78.93,27.06,185.8,93.5,30.9
2026-06-28T10:19:54.151861,22.62,27.06,185.8,93.5,30.9
2026-06-28T10:19:54.153720,31.97,27.06,185.8,93.5,30.9
2026-06-28T10:19:54.171959,-47.65,27.06,185.8,93.5,30.9
2026-06-28T10:19:54.206848,-5.46,27.06,185.8,93.5,30.9
2026-06-28T10:19:54.208328,-25.79,27.06,185.8,93.5,30.9
2026-06-28T10:19:54.249113,9.49,27.06,185.8,93.5,30.9
2026-06-28T10:19:54.250747,-34.33,27.06,185.8,93.5,30.9
2026-06-28T10:19:54.293117,-57.88,27.06,185.8,93.5,30.9
2026-06-28T10:19:54.294969,-32.88,27.06,185.8,93.5,30.9
2026-06-28T10:19:54.341638,-91.22,27.06,185.8,93.5,30.9
2026-06-28T10:19:54.361135,-55.37,27.06,185.8,93.5,30.9
2026-06-28T10:19:54.389893,5.87,27.06,185.8,93.5,30.9
2026-06-28T10:19:54.391444,21.51,27.06,185.8,93.5,30.9
2026-06-28T10:19:54.392885,-119.23,27.06,185.8,93.5,30.9
2026-06-28T10:19:54.437821,-82.06,27.06,185.8,93.5,30.9
2026-06-28T10:19:54.439671,-105.75,27.06,185.8,93.5,30.9
2026-06-28T10:19:54.515048,9.84,27.06,185.8,93.5,30.9
2026-06-28T10:19:54.516896,15.02,27.06,185.8,93.6,30.9
2026-06-28T10:19:54.538942,-3.74,27.06,185.8,93.6,30.9
2026-06-28T10:19:54.541117,12.71,27.06,185.8,93.6,30.9
2026-06-28T10:19:54.584864,-14.45,27.06,185.8,93.6,30.9
2026-06-28T10:19:54.604487,-35.66,27.06,185.8,93.6,30.9
2026-06-28T10:19:54.638115,-51.03,27.06,185.8,93.6,30.9
2026-06-28T10:19:54.639688,-51.3,27.06,185.8,93.6,30.9
2026-06-28T10:19:54.681557,-29.96,27.06,185.8,93.6,30.9
2026-06-28T10:19:54.683312,26.21,27.06,185.8,93.6,30.9
2026-06-28T10:19:54.685588,147.42,27.06,185.8,93.6,30.9
2026-06-28T10:19:54.743037,151.83,27.06,185.8,93.6,30.9
2026-06-28T10:19:54.744952,130.91,27.06,185.8,93.5,30.9
2026-06-28T10:19:54.784372,92.33,27.06,185.8,93.5,30.9
2026-06-28T10:19:54.786601,66.56,27.06,185.8,93.5,30.9
2026-06-28T10:19:54.828855,8.55,27.06,185.8,93.5,30.9
2026-06-28T10:19:54.883699,-2.72,27.06,185.8,93.5,30.9
2026-06-28T10:19:54.885355,-3.3,27.06,185.8,93.5,30.9
2026-06-28T10:19:54.887006,-40.31,27.06,185.8,93.5,30.9
2026-06-28T10:19:54.888448,-14.52,27.06,185.8,93.5,30.9
2026-06-28T10:19:54.927533,-33.84,27.06,185.8,93.5,30.9
2026-06-28T10:19:54.929297,-35.86,27.06,185.8,93.5,30.9
2026-06-28T10:19:54.974985,-72.02,27.06,185.8,93.5,30.9
2026-06-28T10:19:54.993011,24.5,27.06,185.8,93.5,30.9
2026-06-28T10:19:55.027894,1.83,27.06,185.8,93.5,30.9
2026-06-28T10:19:55.030179,7.37,27.06,185.8,93.5,30.9
2026-06-28T10:19:55.074220,-144.34,27.06,185.8,93.6,30.9
2026-06-28T10:19:55.075857,-75.48,27.06,185.8,93.6,30.9
2026-06-28T10:19:55.126785,67.19,27.06,185.8,93.6,30.9
2026-06-28T10:19:55.128621,57.05,27.06,185.8,93.6,30.9
2026-06-28T10:19:55.130446,-19.55,27.06,185.8,93.6,30.9
2026-06-28T10:19:55.170675,-62.01,27.06,185.8,93.6,30.9
2026-06-28T10:19:55.172444,-72.66,27.06,185.8,93.6,30.9
2026-06-28T10:19:55.218591,-49.61,27.06,185.8,93.6,30.9
2026-06-28T10:19:55.239193,-65.67,27.06,185.8,93.6,30.9
2026-06-28T10:19:55.267175,-50.54,27.06,185.8,93.6,30.9
2026-06-28T10:19:55.268716,-47.26,27.06,185.8,93.6,30.9
2026-06-28T10:19:55.315360,-30.33,27.06,185.8,93.6,30.9
2026-06-28T10:19:55.317168,27.78,27.06,185.8,93.6,30.9
2026-06-28T10:19:55.371419,121.85,27.06,185.8,93.6,30.9
2026-06-28T10:19:55.373339,180.42,27.06,185.8,93.6,30.9
2026-06-28T10:19:55.375308,176.94,27.06,185.8,93.5,30.9
2026-06-28T10:19:55.422571,165.08,27.06,185.8,93.5,30.9
2026-06-28T10:19:55.424451,167.73,27.06,185.8,93.5,30.9
2026-06-28T10:19:55.462391,114.76,27.06,185.8,93.5,30.9
2026-06-28T10:19:55.463834,21.63,27.06,185.8,93.5,30.9
2026-06-28T10:19:55.515715,-19.02,27.06,185.8,93.5,30.9
2026-06-28T10:19:55.517488,-23.1,27.06,185.8,93.5,30.9
2026-06-28T10:19:55.559690,-33.84,27.06,185.8,93.6,30.9
2026-06-28T10:19:55.561472,-54.79,27.06,185.8,93.6,30.9
2026-06-28T10:19:55.608946,-82.28,27.06,185.8,93.6,30.9
2026-06-28T10:19:55.610829,-10.06,27.06,185.8,93.6,30.9
2026-06-28T10:19:55.612372,-24.48,27.06,185.8,93.6,30.9
2026-06-28T10:19:55.659515,-7.03,27.06,185.8,93.6,30.9
2026-06-28T10:19:55.661545,-163.35,27.06,185.8,93.6,30.9
2026-06-28T10:19:55.705759,132.74,27.06,185.8,93.6,30.9
2026-06-28T10:19:55.707478,-266.2,27.06,185.8,93.6,30.9
2026-06-28T10:19:55.763740,-1.15,27.06,185.8,93.6,30.9
2026-06-28T10:19:55.767011,-59.92,27.06,185.8,93.6,30.9
2026-06-28T10:19:55.809868,-74.34,27.06,185.8,93.6,30.9
2026-06-28T10:19:55.811499,-50.58,27.06,185.8,93.6,30.9
2026-06-28T10:19:55.812892,-89.99,27.06,185.8,93.6,30.9
2026-06-28T10:19:55.852854,-68.87,27.06,185.8,93.6,30.9
2026-06-28T10:19:55.854430,-39.17,27.06,185.8,93.6,30.9
2026-06-28T10:19:55.903197,-32.15,27.06,185.8,93.6,30.9
2026-06-28T10:19:55.904715,7.41,27.06,185.8,93.6,30.9
2026-06-28T10:19:55.948640,83.63,27.06,185.8,93.6,30.9
2026-06-28T10:19:55.950528,80.64,27.06,185.8,93.6,30.9
2026-06-28T10:19:56.004593,44.76,27.06,185.8,93.6,30.9
2026-06-28T10:19:56.006475,66.54,27.06,185.8,93.6,30.9
2026-06-28T10:19:56.047150,2.46,27.06,185.8,93.5,30.9
2026-06-28T10:19:56.048529,20.69,27.06,185.8,93.5,30.9
2026-06-28T10:19:56.049804,10.01,27.06,185.8,93.5,30.9
2026-06-28T10:19:56.096591,-14.67,27.06,185.8,93.5,30.9
2026-06-28T10:19:56.114669,-19.53,27.06,185.8,93.5,30.9
2026-06-28T10:19:56.149414,-20.5,27.06,185.8,93.5,30.9
2026-06-28T10:19:56.151291,-19.65,27.06,185.8,93.5,30.9
2026-06-28T10:19:56.192739,-16.5,27.06,185.8,93.5,30.9
2026-06-28T10:19:56.194490,-19.73,27.06,185.8,93.5,30.9
2026-06-28T10:19:56.248654,17.67,27.06,185.8,93.5,30.9
2026-06-28T10:19:56.250397,47.59,27.06,185.8,93.5,30.9
2026-06-28T10:19:56.293242,78.48,27.06,185.8,93.5,30.9
2026-06-28T10:19:56.295262,-115.92,27.06,185.8,93.5,30.9
2026-06-28T10:19:56.339204,237.64,27.06,185.8,93.5,30.9
2026-06-28T10:19:56.341067,-50.97,27.06,185.8,93.6,30.9
2026-06-28T10:19:56.393087,-9.66,27.06,185.8,93.6,30.9
2026-06-28T10:19:56.394868,-14.36,27.06,185.8,93.6,30.9
2026-06-28T10:19:56.436980,14.43,27.06,185.8,93.6,30.9
2026-06-28T10:19:56.438762,60.79,27.06,185.8,93.6,30.9
2026-06-28T10:19:56.440448,-29.81,27.06,185.8,93.6,30.9
2026-06-28T10:19:56.485349,-92.9,27.06,185.8,93.6,30.9
2026-06-28T10:19:56.487426,-107.96,27.06,185.8,93.6,30.9
2026-06-28T10:19:56.537183,-90.55,27.06,185.8,93.6,30.9
2026-06-28T10:19:56.539232,-68.81,27.06,185.8,93.6,30.9
2026-06-28T10:19:56.582193,31.2,27.06,185.8,93.6,30.9
2026-06-28T10:19:56.638117,81.07,27.06,185.8,93.5,30.9
2026-06-28T10:19:56.639971,141.15,27.06,185.8,93.5,30.9
2026-06-28T10:19:56.641641,139.97,27.06,185.8,93.5,30.9
2026-06-28T10:19:56.658908,114.95,27.06,185.8,93.5,30.9
2026-06-28T10:19:56.680416,158.76,27.06,185.8,93.5,30.9
2026-06-28T10:19:56.681923,55.61,27.06,185.8,93.5,30.9
2026-06-28T10:19:56.736654,74.43,27.06,185.8,93.5,30.9
2026-06-28T10:19:56.738597,28.48,27.06,185.8,93.5,30.9
2026-06-28T10:19:56.785856,15.44,27.06,185.8,93.5,30.9
2026-06-28T10:19:56.787506,-34.57,27.06,185.8,93.5,30.9
2026-06-28T10:19:56.828070,-91.17,27.06,185.8,93.5,30.9
2026-06-28T10:19:56.829670,-136.41,27.06,185.8,93.5,30.9
2026-06-28T10:19:56.846974,-132.89,27.06,185.8,93.5,30.9
2026-06-28T10:19:56.883695,-58.71,27.06,185.8,93.5,30.9
2026-06-28T10:19:56.885592,-55.19,27.06,185.8,93.5,30.9
2026-06-28T10:19:56.925699,-22.55,27.06,185.8,93.5,30.9
2026-06-28T10:19:56.927395,-176.45,27.06,185.8,93.5,30.9
2026-06-28T10:19:56.976474,115.58,27.06,185.8,93.5,30.9
2026-06-28T10:19:56.978081,-6.67,27.06,185.8,93.5,30.9
2026-06-28T10:19:57.026183,42.87,27.06,185.8,93.5,30.9
2026-06-28T10:19:57.027967,5.67,27.06,185.8,93.5,30.9
2026-06-28T10:19:57.070755,-6.06,27.06,185.8,93.6,30.9
2026-06-28T10:19:57.072857,3.17,27.06,185.8,93.6,30.9
2026-06-28T10:19:57.074626,-44.94,27.06,185.8,93.6,30.9
2026-06-28T10:19:57.125891,-7.36,27.06,185.8,93.6,30.9
2026-06-28T10:19:57.127640,-43.08,27.06,185.8,93.6,30.9
2026-06-28T10:19:57.173883,-45.86,27.06,185.8,93.6,30.9
2026-06-28T10:19:57.175554,-23.83,27.06,185.8,93.6,30.9
2026-06-28T10:19:57.216371,51.77,27.06,185.8,93.6,30.9
2026-06-28T10:19:57.218319,76.22,27.06,185.8,93.5,30.9
2026-06-28T10:19:57.271287,108.31,27.06,185.8,93.5,30.9
2026-06-28T10:19:57.273150,94.11,27.06,185.8,93.5,30.9
2026-06-28T10:19:57.319241,26.26,27.06,185.8,93.5,30.9
2026-06-28T10:19:57.320878,42.18,27.06,185.8,93.5,30.9
2026-06-28T10:19:57.322313,2.26,27.06,185.8,93.5,30.9
2026-06-28T10:19:57.369149,-25.3,27.06,185.8,93.5,30.9
2026-06-28T10:19:57.370833,-12.26,27.06,185.8,93.5,30.9
2026-06-28T10:19:57.414700,-36.33,27.06,185.8,93.5,30.9
2026-06-28T10:19:57.459687,3.52,27.06,185.8,93.5,30.9
2026-06-28T10:19:57.461576,-0.77,27.06,185.8,93.5,30.9
2026-06-28T10:19:57.463479,-22.0,27.06,185.8,93.5,30.9
2026-06-28T10:19:57.508878,51.86,27.06,185.8,93.5,30.9
2026-06-28T10:19:57.510480,25.2,27.06,185.8,93.5,30.9
2026-06-28T10:19:57.559006,2.06,27.06,185.8,93.5,30.9
2026-06-28T10:19:57.560740,-47.47,27.06,185.8,93.5,30.9
2026-06-28T10:19:57.562763,-145.77,27.06,185.8,93.5,30.9
2026-06-28T10:19:57.606324,33.18,27.06,185.8,93.5,30.9
2026-06-28T10:19:57.659427,21.13,27.06,185.8,93.5,30.9
2026-06-28T10:19:57.661094,10.11,27.06,185.8,93.5,30.9
2026-06-28T10:19:57.662984,-5.54,27.06,185.8,93.5,30.9
2026-06-28T10:19:57.703762,-41.32,27.06,185.8,93.5,30.9
2026-06-28T10:19:57.706043,-37.39,27.06,185.8,93.5,30.9
2026-06-28T10:19:57.760007,-66.44,27.06,185.8,93.5,30.9
2026-06-28T10:19:57.762027,-55.97,27.06,185.8,93.5,30.9
2026-06-28T10:19:57.803816,-26.87,27.06,185.8,93.6,30.9
2026-06-28T10:19:57.849716,18.31,27.06,185.8,93.6,30.9
2026-06-28T10:19:57.851560,129.19,27.06,185.8,93.6,30.9
2026-06-28T10:19:57.853390,188.98,27.06,185.8,93.5,30.9
2026-06-28T10:19:57.870655,146.57,27.06,185.8,93.5,30.9
2026-06-28T10:19:57.905593,123.72,27.06,185.8,93.5,30.9
2026-06-28T10:19:57.907108,50.0,27.06,185.8,93.5,30.9
2026-06-28T10:19:57.959728,7.63,27.06,185.8,93.5,30.9
2026-06-28T10:19:57.961593,-8.59,27.06,185.8,93.5,30.9
2026-06-28T10:19:57.995495,-34.22,27.06,185.8,93.5,30.9
2026-06-28T10:19:58.049328,-15.04,27.06,185.8,93.5,30.9
2026-06-28T10:19:58.051253,-49.09,27.06,185.8,93.5,30.9
2026-06-28T10:19:58.053079,-24.14,27.06,185.8,93.5,30.9
2026-06-28T10:19:58.071321,-50.21,27.06,185.8,93.5,30.9
2026-06-28T10:19:58.108706,-69.22,27.06,185.8,93.5,30.9
2026-06-28T10:19:58.110606,5.52,27.06,185.8,93.5,30.9
2026-06-28T10:19:58.150166,4.74,27.06,185.8,93.5,30.9
2026-06-28T10:19:58.151863,2.26,27.06,185.8,93.5,30.9
2026-06-28T10:19:58.193169,-145.09,27.06,185.8,93.5,30.9
2026-06-28T10:19:58.195105,203.14,27.06,185.8,93.5,30.9
2026-06-28T10:19:58.248348,-61.75,27.06,185.8,93.5,30.9
2026-06-28T10:19:58.250297,29.79,27.06,185.8,93.5,30.9
2026-06-28T10:19:58.292290,-25.3,27.06,185.8,93.5,30.9
2026-06-28T10:19:58.293584,15.66,27.06,185.8,93.5,30.9
2026-06-28T10:19:58.338128,5.62,27.06,185.8,93.5,30.9
2026-06-28T10:19:58.340031,-16.61,27.06,185.8,93.5,30.9
2026-06-28T10:19:58.341719,-48.16,27.06,185.8,93.5,30.9
2026-06-28T10:19:58.392541,-71.56,27.06,185.8,93.5,30.9
2026-06-28T10:19:58.437078,-22.57,27.06,185.8,93.5,30.9
2026-06-28T10:19:58.438982,-4.1,27.06,185.8,93.5,30.9
2026-06-28T10:19:58.440797,114.2,27.06,185.8,93.5,30.9
2026-06-28T10:19:58.493929,172.43,27.06,185.8,93.5,30.9
2026-06-28T10:19:58.495732,149.58,27.06,185.8,93.5,30.9
2026-06-28T10:19:58.538185,91.42,27.06,185.8,93.5,30.9
2026-06-28T10:19:58.540736,59.12,27.06,185.8,93.5,30.9
2026-06-28T10:19:58.637427,26.91,27.06,185.8,93.5,30.9
2026-06-28T10:19:58.639495,-56.08,27.06,185.8,93.5,30.9
2026-06-28T10:19:58.641214,-52.36,27.06,185.8,93.5,30.9
2026-06-28T10:19:58.662731,-55.32,27.06,185.8,93.5,30.9
2026-06-28T10:19:58.664357,-20.26,27.06,185.8,93.5,30.9
2026-06-28T10:19:58.686978,-9.14,27.06,185.8,93.5,30.9
2026-06-28T10:19:58.688631,-51.24,27.06,185.8,93.5,30.9
2026-06-28T10:19:58.727913,-17.42,27.06,185.8,93.5,30.9
2026-06-28T10:19:58.745367,-87.68,27.06,185.8,93.5,30.9
2026-06-28T10:19:58.781372,-24.58,27.06,185.8,93.5,30.9
2026-06-28T10:19:58.783035,-0.59,27.06,185.8,93.5,30.9
2026-06-28T10:19:58.839114,27.83,27.06,185.8,93.5,30.9
2026-06-28T10:19:58.842977,-56.88,27.06,185.8,93.5,30.9
2026-06-28T10:19:58.846927,-76.38,27.06,185.8,93.5,30.9
2026-06-28T10:19:58.882423,-123.26,27.06,185.8,93.5,30.9
2026-06-28T10:19:58.884052,-7.19,27.06,185.8,93.5,30.9
2026-06-28T10:19:58.927448,56.34,27.06,185.8,93.5,30.9
2026-06-28T10:19:58.929714,23.15,27.06,185.8,93.5,30.9
2026-06-28T10:19:58.971450,-4.96,27.06,185.8,93.5,30.9
2026-06-28T10:19:58.973750,-46.73,27.06,185.8,93.5,30.9
2026-06-28T10:19:59.032116,-17.2,27.06,185.8,93.5,30.9
2026-06-28T10:19:59.033992,-43.78,27.06,185.8,93.5,30.9
2026-06-28T10:19:59.071505,-66.5,27.06,185.8,93.6,30.9
2026-06-28T10:19:59.073168,-16.12,27.06,185.8,93.6,30.9
2026-06-28T10:19:59.076250,52.64,27.06,185.8,93.6,30.9
2026-06-28T10:19:59.125847,140.88,27.06,185.8,93.6,30.9
2026-06-28T10:19:59.127729,190.21,27.06,185.8,93.5,30.9
2026-06-28T10:19:59.169684,146.46,27.06,185.8,93.5,30.9
2026-06-28T10:19:59.171289,73.67,27.06,185.8,93.5,30.9
2026-06-28T10:19:59.214981,69.13,27.06,185.8,93.5,30.9
2026-06-28T10:19:59.216515,-13.77,27.06,185.8,93.5,30.9
2026-06-28T10:19:59.272567,-5.26,27.06,185.8,93.5,30.9
2026-06-28T10:19:59.274404,-21.02,27.06,185.8,93.5,30.9
2026-06-28T10:19:59.314787,6.05,27.06,185.8,93.5,30.9
2026-06-28T10:19:59.316611,-52.25,27.06,185.8,93.5,30.9
2026-06-28T10:19:59.318357,-5.67,27.06,185.8,93.5,30.9
2026-06-28T10:19:59.385272,-33.87,27.06,185.8,93.5,30.9
2026-06-28T10:19:59.416962,-26.85,27.06,185.8,93.5,30.9
2026-06-28T10:19:59.418830,3.12,27.06,185.8,93.5,30.9
2026-06-28T10:19:59.420279,-64.11,27.06,185.8,93.5,30.9
2026-06-28T10:19:59.461174,-3.06,27.06,185.8,93.5,30.9
2026-06-28T10:19:59.462803,26.45,27.06,185.8,93.5,30.9
2026-06-28T10:19:59.514563,2.2,27.06,185.8,93.5,30.9
2026-06-28T10:19:59.516269,-26.86,27.06,185.8,93.5,30.9
2026-06-28T10:19:59.517848,-51.14,27.06,185.8,93.5,30.9
2026-06-28T10:19:59.558859,-146.34,27.06,185.8,93.5,30.9
2026-06-28T10:19:59.560538,13.13,27.06,185.8,93.5,30.9
2026-06-28T10:19:59.605809,24.29,27.06,185.8,93.5,30.9
2026-06-28T10:19:59.623569,-21.92,27.06,185.8,93.5,30.9
2026-06-28T10:19:59.654132,-21.45,27.06,185.8,93.5,30.9
2026-06-28T10:19:59.656051,-27.86,27.06,185.8,93.5,30.9
2026-06-28T10:19:59.703525,-32.62,27.06,185.8,93.6,30.9
2026-06-28T10:19:59.705120,-54.2,27.06,185.8,93.6,30.9
2026-06-28T10:19:59.758568,-55.78,27.06,185.8,93.6,30.9
2026-06-28T10:19:59.760300,-51.42,27.06,185.8,93.6,30.9
2026-06-28T10:19:59.762138,7.39,27.06,185.8,93.5,30.9
2026-06-28T10:19:59.804543,136.34,27.06,185.8,93.5,30.9
2026-06-28T10:19:59.807083,151.98,27.06,185.8,93.5,30.9
2026-06-28T10:19:59.852983,184.76,27.06,185.8,93.5,30.9
2026-06-28T10:19:59.854719,92.6,27.06,185.8,93.5,30.9
2026-06-28T10:19:59.902747,68.27,27.06,185.8,93.5,30.9
2026-06-28T10:19:59.904533,-13.76,27.06,185.8,93.5,30.9
2026-06-28T10:19:59.947519,-1.6,27.06,185.8,93.5,30.9
2026-06-28T10:19:59.949330,-61.96,27.06,185.8,93.5,30.9
2026-06-28T10:19:59.995309,-30.71,27.06,185.8,93.5,30.9
2026-06-28T10:19:59.997174,-35.18,27.06,185.8,93.5,30.9
2026-06-28T10:20:00.044032,-52.28,27.06,185.8,93.5,30.9
2026-06-28T10:20:00.045743,-41.6,27.06,185.8,93.5,30.9
2026-06-28T10:20:00.047291,-72.01,27.06,185.8,93.5,30.9
2026-06-28T10:20:00.092015,-55.85,27.06,185.8,93.5,30.9
2026-06-28T10:20:00.094297,-8.76,27.06,185.8,93.5,30.9
2026-06-28T10:20:00.164195,22.62,27.06,185.8,93.5,30.9
2026-06-28T10:20:00.168091,27.7,27.06,185.8,93.5,30.9
2026-06-28T10:20:00.194534,-123.58,27.06,185.8,93.5,30.9
2026-06-28T10:20:00.196208,140.71,27.06,185.8,93.5,30.9
2026-06-28T10:20:00.239814,11.68,27.06,185.8,93.5,30.9
2026-06-28T10:20:00.256221,65.54,27.06,185.8,93.5,30.9
2026-06-28T10:20:00.293167,1.23,27.06,185.8,93.5,30.9
2026-06-28T10:20:00.294773,-1.94,27.06,185.8,93.5,30.9
2026-06-28T10:20:00.296767,-24.67,27.06,185.8,93.5,30.9
2026-06-28T10:20:00.336204,-2.14,27.06,185.8,93.6,30.9
2026-06-28T10:20:00.337704,-39.87,27.06,185.8,93.6,30.9
2026-06-28T10:20:00.391911,-25.02,27.06,185.8,93.6,30.9
2026-06-28T10:20:00.393702,-33.99,27.06,185.8,93.6,30.9
2026-06-28T10:20:00.435866,4.59,27.06,185.8,93.6,30.9
2026-06-28T10:20:00.437405,112.14,27.06,185.8,93.6,30.9
2026-06-28T10:20:00.483101,170.51,27.06,185.8,93.6,30.9
2026-06-28T10:20:00.500540,165.27,27.06,185.8,93.5,30.9
2026-06-28T10:20:00.537236,83.33,27.06,185.8,93.5,30.9
2026-06-28T10:20:00.538874,58.89,27.06,185.8,93.5,30.9
2026-06-28T10:20:00.579951,-19.75,27.06,185.8,93.5,30.9
2026-06-28T10:20:00.581450,-73.35,27.06,185.8,93.5,30.9
2026-06-28T10:20:00.583135,-46.62,27.06,185.8,93.5,30.9
2026-06-28T10:20:00.628572,-53.54,27.06,185.8,93.5,30.9
2026-06-28T10:20:00.680199,-45.49,27.06,185.8,93.5,30.9
2026-06-28T10:20:00.681987,-65.18,27.06,185.8,93.5,30.9
2026-06-28T10:20:00.683738,-15.87,27.06,185.8,93.5,30.9
2026-06-28T10:20:00.727429,-59.74,27.06,185.8,93.5,30.9
2026-06-28T10:20:00.745409,-45.9,27.06,185.8,93.5,30.9
2026-06-28T10:20:00.780759,13.97,27.06,185.8,93.5,30.9
2026-06-28T10:20:00.782371,2.51,27.06,185.8,93.5,30.9
2026-06-28T10:20:00.824421,20.13,27.06,185.8,93.5,30.9
2026-06-28T10:20:00.826649,-157.74,27.06,185.8,93.5,30.9
2026-06-28T10:20:00.880352,41.81,27.06,185.8,93.5,30.9
2026-06-28T10:20:00.882273,44.22,27.06,185.8,93.5,30.9
2026-06-28T10:20:00.883979,72.96,27.06,185.8,93.6,30.9
2026-06-28T10:20:00.924315,15.99,27.06,185.8,93.6,30.9
2026-06-28T10:20:00.926026,4.79,27.06,185.8,93.6,30.9
2026-06-28T10:20:00.969644,-25.96,27.06,185.8,93.6,30.9
2026-06-28T10:20:00.971618,-22.08,27.06,185.8,93.6,30.9
2026-06-28T10:20:01.027799,-38.21,27.06,185.8,93.6,30.9
2026-06-28T10:20:01.029395,-48.92,27.06,185.8,93.6,30.9
2026-06-28T10:20:01.069761,-19.74,27.06,185.8,93.6,30.9
2026-06-28T10:20:01.071547,13.27,27.06,185.8,93.6,30.9
2026-06-28T10:20:01.124496,141.19,27.06,185.8,93.6,30.9
2026-06-28T10:20:01.126162,145.55,27.06,185.8,93.6,30.9
2026-06-28T10:20:01.127844,124.6,27.06,185.8,93.5,30.9
2026-06-28T10:20:01.168535,84.9,27.06,185.8,93.5,30.9
2026-06-28T10:20:01.215023,40.42,27.06,185.8,93.5,30.9
2026-06-28T10:20:01.216544,-12.81,27.06,185.8,93.5,30.9
2026-06-28T10:20:01.218233,-27.98,27.06,185.8,93.5,30.9
2026-06-28T10:20:01.270128,-46.98,27.06,185.8,93.5,30.9
2026-06-28T10:20:01.272843,-46.12,27.06,185.8,93.5,30.9
2026-06-28T10:20:01.313066,-11.01,27.06,185.8,93.5,30.9
2026-06-28T10:20:01.314596,-32.65,27.06,185.8,93.5,30.9
2026-06-28T10:20:01.363096,19.99,27.06,185.8,93.5,30.9
2026-06-28T10:20:01.364699,-33.37,27.06,185.8,93.5,30.9
2026-06-28T10:20:01.366204,-51.25,27.06,185.8,93.5,30.9
2026-06-28T10:20:01.413116,-46.52,27.06,185.8,93.5,30.9
2026-06-28T10:20:01.414923,-0.48,27.06,185.8,93.5,30.9
2026-06-28T10:20:01.457436,32.67,27.06,185.8,93.5,30.9
2026-06-28T10:20:01.459194,-0.9,27.06,185.8,93.5,30.9
2026-06-28T10:20:01.515687,-183.65,27.06,185.8,93.5,30.9
2026-06-28T10:20:01.517388,65.38,27.06,185.8,93.5,30.9
2026-06-28T10:20:01.561590,-61.7,27.06,185.8,93.6,30.9
2026-06-28T10:20:01.563397,-5.47,27.06,185.8,93.6,30.9
2026-06-28T10:20:01.613026,14.45,27.06,185.8,93.6,30.9
2026-06-28T10:20:01.614808,-8.49,27.06,185.8,93.6,30.9
2026-06-28T10:20:01.616576,-25.36,27.06,185.8,93.6,30.9
2026-06-28T10:20:01.657635,-36.15,27.06,185.8,93.6,30.9
2026-06-28T10:20:01.659322,-61.17,27.06,185.8,93.6,30.9
2026-06-28T10:20:01.701924,-62.5,27.06,185.8,93.6,30.9
2026-06-28T10:20:01.703629,-34.62,27.06,185.8,93.6,30.9
2026-06-28T10:20:01.760350,16.7,27.06,185.8,93.6,30.9
2026-06-28T10:20:01.762150,100.27,27.06,185.8,93.6,30.9
2026-06-28T10:20:01.805347,153.05,27.06,185.8,93.5,30.9
2026-06-28T10:20:01.806955,148.94,27.06,185.8,93.5,30.9
2026-06-28T10:20:01.903676,84.91,27.06,185.8,93.5,30.9
2026-06-28T10:20:01.905817,57.77,27.06,185.8,93.5,30.9
2026-06-28T10:20:01.907466,-20.77,27.06,185.8,93.5,30.9
2026-06-28T10:20:01.908903,-1.4,27.06,185.8,93.5,30.9
2026-06-28T10:20:01.910219,-31.06,27.06,185.8,93.5,30.9
2026-06-28T10:20:01.946579,-21.23,27.06,185.8,93.5,30.9
2026-06-28T10:20:01.948128,-30.18,27.06,185.8,93.5,30.9
2026-06-28T10:20:02.001430,25.18,27.06,185.8,93.5,30.9
2026-06-28T10:20:02.003013,-14.35,27.06,185.8,93.5,30.9
2026-06-28T10:20:02.046088,-36.87,27.06,185.8,93.5,30.9
2026-06-28T10:20:02.047841,-45.12,27.06,185.8,93.5,30.9
2026-06-28T10:20:02.091715,-78.21,27.06,185.8,93.5,30.9
2026-06-28T10:20:02.093901,-3.89,27.06,185.8,93.5,30.9
2026-06-28T10:20:02.095586,3.96,27.06,185.8,93.5,30.9
2026-06-28T10:20:02.140415,45.57,27.12,185.8,93.5,30.9
2026-06-28T10:20:02.189860,-125.32,27.12,185.8,93.5,30.9
2026-06-28T10:20:02.240500,186.3,27.12,185.8,93.5,30.9
2026-06-28T10:20:02.242344,-189.9,27.12,185.8,93.5,30.9
2026-06-28T10:20:02.243755,-38.14,27.12,185.8,93.5,30.9
2026-06-28T10:20:02.245888,17.23,27.12,185.8,93.6,30.9
2026-06-28T10:20:02.289696,-32.77,27.12,185.8,93.6,30.9
2026-06-28T10:20:02.291193,-13.04,27.12,185.8,93.6,30.9
2026-06-28T10:20:02.335683,-21.72,27.12,185.8,93.6,30.9
2026-06-28T10:20:02.337127,-43.34,27.12,185.8,93.6,30.9
2026-06-28T10:20:02.391079,-67.1,27.12,185.8,93.6,30.9
2026-06-28T10:20:02.392824,-42.95,27.12,185.8,93.6,30.9
2026-06-28T10:20:02.435611,22.0,27.12,185.8,93.6,30.9
2026-06-28T10:20:02.437373,91.21,27.12,185.8,93.6,30.9
2026-06-28T10:20:02.439188,202.61,27.12,185.8,93.6,30.9
2026-06-28T10:20:02.481228,155.37,27.12,185.8,93.6,30.9
2026-06-28T10:20:02.483161,80.92,27.12,185.8,93.5,30.9
2026-06-28T10:20:02.535801,58.82,27.12,185.8,93.5,30.9
2026-06-28T10:20:02.537606,-1.75,27.12,185.8,93.5,30.9
2026-06-28T10:20:02.579033,-8.13,27.12,185.8,93.5,30.9
2026-06-28T10:20:02.580579,-42.64,27.12,185.8,93.5,30.9
2026-06-28T10:20:02.634427,-27.66,27.12,185.8,93.5,30.9
2026-06-28T10:20:02.636066,-28.85,27.12,185.8,93.5,30.9
2026-06-28T10:20:02.678982,-32.51,27.12,185.8,93.5,30.9
2026-06-28T10:20:02.728665,-31.48,27.12,185.8,93.5,30.9
2026-06-28T10:20:02.730760,-70.26,27.12,185.8,93.5,30.9
2026-06-28T10:20:02.732171,-52.9,27.12,185.8,93.5,30.9
2026-06-28T10:20:02.779807,13.67,27.12,185.8,93.5,30.9
2026-06-28T10:20:02.782001,32.33,27.12,185.8,93.5,30.9
2026-06-28T10:20:02.863085,-14.88,27.12,185.8,93.5,30.9
2026-06-28T10:20:02.865124,-113.46,27.12,185.8,93.5,30.9
2026-06-28T10:20:02.890633,-112.6,27.12,185.8,93.5,30.9
2026-06-28T10:20:02.892204,21.4,27.12,185.8,93.5,30.9
2026-06-28T10:20:02.893696,25.74,27.12,185.8,93.5,30.9
2026-06-28T10:20:02.923723,13.51,27.12,185.8,93.5,30.9
2026-06-28T10:20:02.925296,8.14,27.12,185.8,93.5,30.9
2026-06-28T10:20:02.968897,9.31,27.12,185.8,93.6,30.9
2026-06-28T10:20:02.971028,-32.28,27.12,185.8,93.6,30.9
2026-06-28T10:20:03.023613,-52.85,27.12,185.8,93.6,30.9
2026-06-28T10:20:03.025290,-50.74,27.12,185.8,93.6,30.9
2026-06-28T10:20:03.068922,-0.09,27.12,185.8,93.6,30.9
2026-06-28T10:20:03.070932,57.97,27.12,185.8,93.6,30.9
2026-06-28T10:20:03.114741,129.76,27.12,185.8,93.6,30.9
2026-06-28T10:20:03.130630,158.1,27.12,185.8,93.5,30.9
2026-06-28T10:20:03.169422,116.32,27.12,185.8,93.5,30.9
2026-06-28T10:20:03.171057,38.82,27.12,185.8,93.5,30.9
2026-06-28T10:20:03.212883,18.09,27.12,185.8,93.5,30.9
2026-06-28T10:20:03.214611,-35.9,27.12,185.8,93.5,30.9
2026-06-28T10:20:03.216360,-48.68,27.12,185.8,93.5,30.9
2026-06-28T10:20:03.268934,-43.99,27.12,185.8,93.5,30.9
2026-06-28T10:20:03.270647,-8.61,27.12,185.8,93.5,30.9
2026-06-28T10:20:03.312265,-7.09,27.12,185.8,93.5,30.9
2026-06-28T10:20:03.314163,-27.65,27.12,185.8,93.5,30.9
2026-06-28T10:20:03.359923,-88.0,27.12,185.8,93.5,30.9
2026-06-28T10:20:03.377134,-7.81,27.12,185.8,93.5,30.9
2026-06-28T10:20:03.413203,-5.19,27.12,185.8,93.5,30.9
2026-06-28T10:20:03.414902,16.48,27.12,185.8,93.5,30.9
2026-06-28T10:20:03.460091,-136.2,27.12,185.8,93.5,30.9
2026-06-28T10:20:03.461694,178.67,27.12,185.8,93.5,30.9
2026-06-28T10:20:03.512660,-13.71,27.12,185.8,93.5,30.9
2026-06-28T10:20:03.514505,57.87,27.12,185.8,93.5,30.9
2026-06-28T10:20:03.556588,41.85,27.12,185.8,93.5,30.9
2026-06-28T10:20:03.558246,6.8,27.12,185.8,93.5,30.9
2026-06-28T10:20:03.560033,-6.96,27.12,185.8,93.5,30.9
2026-06-28T10:20:03.606994,-24.92,27.12,185.8,93.5,30.9
2026-06-28T10:20:03.608536,-63.99,27.12,185.8,93.6,30.9
2026-06-28T10:20:03.656134,-71.11,27.12,185.8,93.6,30.9
2026-06-28T10:20:03.700720,-38.77,27.12,185.8,93.6,30.9
2026-06-28T10:20:03.702211,2.8,27.12,185.8,93.6,30.9
2026-06-28T10:20:03.703756,127.11,27.12,185.8,93.6,30.9
2026-06-28T10:20:03.749746,183.03,27.12,185.8,93.6,30.9
2026-06-28T10:20:03.766529,141.77,27.12,185.8,93.6,30.9
2026-06-28T10:20:03.797449,81.78,27.12,185.8,93.5,30.9
2026-06-28T10:20:03.799255,22.08,27.12,185.8,93.5,30.9
2026-06-28T10:20:03.846640,15.25,27.12,185.8,93.5,30.9
2026-06-28T10:20:03.902501,-48.23,27.12,185.8,93.5,30.9
2026-06-28T10:20:03.904240,-37.11,27.12,185.8,93.5,30.9
2026-06-28T10:20:03.905958,-36.59,27.12,185.8,93.5,30.9
2026-06-28T10:20:03.924568,-8.63,27.12,185.8,93.5,30.9
2026-06-28T10:20:03.953078,-20.1,27.12,185.8,93.5,30.9
2026-06-28T10:20:03.954635,-6.84,27.12,185.8,93.5,30.9
2026-06-28T10:20:03.993828,-14.11,27.12,185.8,93.5,30.9
2026-06-28T10:20:04.010251,-82.68,27.12,185.8,93.5,30.9
2026-06-28T10:20:04.045954,25.14,27.12,185.8,93.5,30.9
2026-06-28T10:20:04.047499,0.3,27.12,185.8,93.5,30.9
2026-06-28T10:20:04.090844,-11.04,27.12,185.8,93.5,30.9
2026-06-28T10:20:04.092585,-193.4,27.12,185.8,93.5,30.9
2026-06-28T10:20:04.145804,51.68,27.12,185.8,93.5,30.9
2026-06-28T10:20:04.147507,31.11,27.12,185.8,93.5,30.9
2026-06-28T10:20:04.189030,7.69,27.12,185.8,93.6,30.9
2026-06-28T10:20:04.192255,-21.81,27.12,185.8,93.6,30.9
2026-06-28T10:20:04.193785,-17.54,27.12,185.8,93.6,30.9
2026-06-28T10:20:04.236364,-20.49,27.12,185.8,93.6,30.9
2026-06-28T10:20:04.290341,-57.67,27.12,185.8,93.6,30.9
2026-06-28T10:20:04.291992,-47.47,27.12,185.8,93.6,30.9
2026-06-28T10:20:04.293589,-38.89,27.12,185.8,93.6,30.9
2026-06-28T10:20:04.333927,-32.97,27.12,185.8,93.6,30.9
2026-06-28T10:20:04.335206,29.47,27.12,185.8,93.6,30.9
2026-06-28T10:20:04.390155,149.46,27.12,185.8,93.6,30.9
2026-06-28T10:20:04.391896,161.49,27.12,185.8,93.6,30.9
2026-06-28T10:20:04.434997,100.22,27.12,185.8,93.5,30.9
2026-06-28T10:20:04.436893,79.31,27.12,185.8,93.5,30.9
2026-06-28T10:20:04.479942,37.75,27.12,185.8,93.5,30.9
2026-06-28T10:20:04.482114,18.84,27.12,185.8,93.5,30.9
2026-06-28T10:20:04.581957,-30.84,27.12,185.8,93.5,30.9
2026-06-28T10:20:04.634828,-34.43,27.12,185.8,93.5,30.9
2026-06-28T10:20:04.636667,-19.0,27.12,185.8,93.5,30.9
2026-06-28T10:20:04.638541,-37.78,27.12,185.8,93.5,30.9
2026-06-28T10:20:04.640195,-0.22,27.12,185.8,93.5,30.9
2026-06-28T10:20:04.657036,-10.07,27.12,185.8,93.5,30.9
2026-06-28T10:20:04.659218,-6.45,27.12,185.8,93.5,30.9
2026-06-28T10:20:04.675983,-20.98,27.12,185.8,93.5,30.9
2026-06-28T10:20:04.677487,34.54,27.12,185.8,93.5,30.9
2026-06-28T10:20:04.723006,5.64,27.12,185.8,93.5,30.9
2026-06-28T10:20:04.724479,-36.28,27.12,185.8,93.5,30.9
2026-06-28T10:20:04.780494,-182.52,27.12,185.8,93.5,30.9
2026-06-28T10:20:04.824356,227.8,27.12,185.8,93.5,30.9
2026-06-28T10:20:04.825961,19.21,27.12,185.8,93.6,30.9
2026-06-28T10:20:04.827603,24.45,27.12,185.8,93.6,30.9
2026-06-28T10:20:04.844103,9.45,27.12,185.8,93.6,30.9
2026-06-28T10:20:04.870374,-5.37,27.12,185.8,93.6,30.9
2026-06-28T10:20:04.886462,-40.05,27.12,185.8,93.6,30.9
2026-06-28T10:20:04.925046,-37.33,27.12,185.8,93.6,30.9
2026-06-28T10:20:04.926618,-50.2,27.12,185.8,93.6,30.9
2026-06-28T10:20:04.967546,-57.83,27.12,185.8,93.6,30.9
2026-06-28T10:20:05.024408,-33.98,27.12,185.8,93.6,30.9
2026-06-28T10:20:05.026360,53.16,27.12,185.8,93.6,30.9
2026-06-28T10:20:05.028082,169.22,27.12,185.8,93.6,30.9
2026-06-28T10:20:05.073677,177.35,27.12,185.8,93.5,30.9
2026-06-28T10:20:05.075303,119.21,27.12,185.8,93.5,30.9
2026-06-28T10:20:05.115570,65.75,27.12,185.8,93.5,30.9
2026-06-28T10:20:05.117430,18.63,27.12,185.8,93.5,30.9
2026-06-28T10:20:05.175090,-30.28,27.12,185.8,93.5,30.9
2026-06-28T10:20:05.176581,-36.36,27.12,185.8,93.5,30.9
2026-06-28T10:20:05.212593,-26.16,27.12,185.8,93.5,30.9
2026-06-28T10:20:05.214211,-39.64,27.12,185.8,93.5,30.9
2026-06-28T10:20:05.215798,-26.32,27.12,185.8,93.5,30.9
2026-06-28T10:20:05.260351,-32.66,27.12,185.8,93.5,30.9
2026-06-28T10:20:05.262040,-34.3,27.12,185.8,93.5,30.9
2026-06-28T10:20:05.312339,-77.12,27.12,185.8,93.5,30.9
2026-06-28T10:20:05.357788,8.46,27.12,185.8,93.5,30.9
2026-06-28T10:20:05.359695,-10.57,27.12,185.8,93.5,30.9
2026-06-28T10:20:05.361401,-18.27,27.12,185.8,93.5,30.9
2026-06-28T10:20:05.412047,-167.4,27.12,185.8,93.5,30.9
2026-06-28T10:20:05.413599,177.26,27.12,185.8,93.5,30.9
2026-06-28T10:20:05.454690,-1.97,27.12,185.8,93.6,30.9
2026-06-28T10:20:05.456268,33.5,27.12,185.8,93.6,30.9
2026-06-28T10:20:05.518541,14.02,27.12,185.8,93.6,30.9
2026-06-28T10:20:05.557696,-8.85,27.12,185.8,93.6,30.9
2026-06-28T10:20:05.559287,-6.84,27.12,185.8,93.6,30.9
2026-06-28T10:20:05.560841,-13.6,27.12,185.8,93.6,30.9
2026-06-28T10:20:05.577231,-50.77,27.12,185.8,93.6,30.9
2026-06-28T10:20:05.601051,-43.52,27.12,185.8,93.6,30.9
2026-06-28T10:20:05.602417,-25.82,27.12,185.8,93.6,30.9
2026-06-28T10:20:05.653049,24.73,27.12,185.8,93.6,30.9
2026-06-28T10:20:05.654789,146.17,27.12,185.8,93.6,30.9
2026-06-28T10:20:05.701081,172.02,27.12,185.8,93.5,30.9
2026-06-28T10:20:05.702792,141.15,27.12,185.8,93.5,30.9
2026-06-28T10:20:05.748560,61.32,27.12,185.8,93.5,30.9
2026-06-28T10:20:05.765493,30.6,27.12,185.8,93.5,30.9
2026-06-28T10:20:05.801848,-27.61,27.12,185.8,93.5,30.9
2026-06-28T10:20:05.803348,-44.09,27.12,185.8,93.5,30.9
2026-06-28T10:20:05.845659,-55.71,27.12,185.8,93.5,30.9
2026-06-28T10:20:05.847180,-30.48,27.12,185.8,93.5,30.9
2026-06-28T10:20:05.900649,-15.06,27.12,185.8,93.5,30.9
2026-06-28T10:20:05.902198,-37.29,27.12,185.8,93.5,30.9
2026-06-28T10:20:05.903741,-40.07,27.12,185.8,93.5,30.9
2026-06-28T10:20:05.945400,-8.63,27.12,185.8,93.5,30.9
2026-06-28T10:20:05.947133,-7.13,27.12,185.8,93.5,30.9
2026-06-28T10:20:05.996525,-1.89,27.12,185.8,93.5,30.9
2026-06-28T10:20:05.998133,-137.74,27.12,185.8,93.5,30.9
2026-06-28T10:20:06.045982,165.66,27.12,185.8,93.5,30.9
2026-06-28T10:20:06.047571,0.56,27.12,185.8,93.5,30.9
2026-06-28T10:20:06.090382,107.86,27.12,185.8,93.5,30.9
2026-06-28T10:20:06.091972,25.59,27.12,185.8,93.6,30.9
2026-06-28T10:20:06.137415,2.58,27.12,185.8,93.6,30.9
2026-06-28T10:20:06.154202,-25.23,27.12,185.8,93.6,30.9
2026-06-28T10:20:06.192653,-14.78,27.12,185.8,93.6,30.9
2026-06-28T10:20:06.194408,-71.21,27.12,185.8,93.6,30.9
2026-06-28T10:20:06.235099,-54.0,27.12,185.8,93.6,30.9
2026-06-28T10:20:06.236832,-52.94,27.12,185.8,93.6,30.9
2026-06-28T10:20:06.238537,12.49,27.12,185.8,93.6,30.9
2026-06-28T10:20:06.285838,120.4,27.12,185.8,93.6,30.9
2026-06-28T10:20:06.289618,162.33,27.12,185.8,93.6,30.9
2026-06-28T10:20:06.334323,116.65,27.12,185.8,93.5,30.9
2026-06-28T10:20:06.335819,77.67,27.12,185.8,93.5,30.9
2026-06-28T10:20:06.380458,40.28,27.12,185.8,93.5,30.9
2026-06-28T10:20:06.382201,-6.27,27.12,185.8,93.5,30.9
2026-06-28T10:20:06.430862,-46.9,27.12,185.8,93.5,30.9
2026-06-28T10:20:06.433449,-29.05,27.12,185.8,93.5,30.9
2026-06-28T10:20:06.492173,-23.38,27.12,185.8,93.5,30.9
2026-06-28T10:20:06.497229,-11.65,27.12,185.8,93.5,30.9
2026-06-28T10:20:06.534820,-17.22,27.12,185.8,93.5,30.9
2026-06-28T10:20:06.536561,-37.0,27.12,185.8,93.5,30.9
2026-06-28T10:20:06.579451,-70.62,27.12,185.8,93.5,30.9
2026-06-28T10:20:06.580970,-37.02,27.12,185.8,93.5,30.9
2026-06-28T10:20:06.625332,20.72,27.12,185.8,93.5,30.9
2026-06-28T10:20:06.626932,6.68,27.12,185.8,93.5,30.9
2026-06-28T10:20:06.679261,-141.24,27.12,185.8,93.6,30.9
2026-06-28T10:20:06.680856,202.84,27.12,185.8,93.6,30.9
2026-06-28T10:20:06.682519,-76.22,27.12,185.8,93.6,30.9
2026-06-28T10:20:06.723360,38.47,27.12,185.8,93.6,30.9
2026-06-28T10:20:06.724748,1.75,27.12,185.8,93.6,30.9
2026-06-28T10:20:06.773435,-12.64,27.12,185.8,93.6,30.9
2026-06-28T10:20:06.775103,-26.41,27.12,185.8,93.6,30.9
2026-06-28T10:20:06.823554,-26.01,27.12,185.8,93.6,30.9
2026-06-28T10:20:06.825247,-48.18,27.12,185.8,93.6,30.9
2026-06-28T10:20:06.869243,-63.52,27.12,185.8,93.6,30.9
2026-06-28T10:20:06.871326,-29.17,27.12,185.8,93.6,30.9
2026-06-28T10:20:06.924753,12.47,27.12,185.8,93.6,30.9
2026-06-28T10:20:06.926500,149.55,27.12,185.8,93.6,30.9
2026-06-28T10:20:06.967422,155.41,27.12,185.8,93.6,30.9
2026-06-28T10:20:06.968854,141.48,27.12,185.8,93.5,30.9
2026-06-28T10:20:07.015885,80.49,27.12,185.8,93.5,30.9
2026-06-28T10:20:07.033544,15.34,27.12,185.8,93.5,30.9
2026-06-28T10:20:07.035437,0.86,27.12,185.8,93.5,30.9
2026-06-28T10:20:07.092379,-34.44,27.12,185.8,93.5,30.9
2026-06-28T10:20:07.094075,-58.29,27.12,185.8,93.5,30.9
2026-06-28T10:20:07.115150,-15.6,27.12,185.8,93.5,30.9
2026-06-28T10:20:07.116577,-33.9,27.12,185.8,93.5,30.9
2026-06-28T10:20:07.168032,-16.11,27.12,185.8,93.5,30.9
2026-06-28T10:20:07.170598,-29.99,27.12,185.8,93.5,30.9
2026-06-28T10:20:07.212161,-16.34,27.12,185.8,93.5,30.9
2026-06-28T10:20:07.213667,-62.29,27.12,185.8,93.5,30.9
2026-06-28T10:20:07.259030,10.99,27.12,185.8,93.5,30.9
2026-06-28T10:20:07.308447,12.45,27.12,185.8,93.5,30.9
2026-06-28T10:20:07.309904,13.36,27.12,185.8,93.6,30.9
2026-06-28T10:20:07.311408,-154.35,27.12,185.8,93.6,30.9
2026-06-28T10:20:07.357726,219.85,27.12,185.8,93.6,30.9
2026-06-28T10:20:07.359443,34.96,27.12,185.8,93.6,30.9
2026-06-28T10:20:07.361120,-51.0,27.12,185.8,93.6,30.9
2026-06-28T10:20:07.414726,-1.24,27.12,185.8,93.6,30.9
2026-06-28T10:20:07.416609,-13.51,27.12,185.8,93.6,30.9
2026-06-28T10:20:07.457407,-5.16,27.12,185.8,93.6,30.9
2026-06-28T10:20:07.459062,-34.4,27.12,185.8,93.6,30.9
2026-06-28T10:20:07.502498,-46.24,27.12,185.8,93.6,30.9
2026-06-28T10:20:07.504624,-54.38,27.12,185.8,93.6,30.9
2026-06-28T10:20:07.557555,-39.37,27.12,185.8,93.6,30.9
2026-06-28T10:20:07.559444,27.67,27.12,185.8,93.6,30.9
2026-06-28T10:20:07.601866,130.32,27.12,185.8,93.6,30.9
2026-06-28T10:20:07.603446,196.35,27.12,185.8,93.5,30.9
2026-06-28T10:20:07.648039,116.65,27.12,185.8,93.5,30.9
2026-06-28T10:20:07.649868,65.08,27.12,185.8,93.5,30.9
2026-06-28T10:20:07.702232,41.03,27.12,185.8,93.5,30.9
2026-06-28T10:20:07.703874,28.09,27.12,185.8,93.5,30.9
2026-06-28T10:20:07.705404,-33.37,27.12,185.8,93.5,30.9
2026-06-28T10:20:07.745946,-31.0,27.12,185.8,93.5,30.9
2026-06-28T10:20:07.747360,-5.24,27.12,185.8,93.5,30.9
2026-06-28T10:20:07.796078,-34.36,27.12,185.8,93.5,30.9
2026-06-28T10:20:07.797545,-31.62,27.12,185.8,93.5,30.9
2026-06-28T10:20:07.845870,-31.38,27.12,185.8,93.5,30.9
2026-06-28T10:20:07.847470,-35.53,27.12,185.8,93.5,30.9
2026-06-28T10:20:07.901606,-24.06,27.12,185.8,93.5,30.9
2026-06-28T10:20:07.903232,-65.02,27.12,185.8,93.5,30.9
2026-06-28T10:20:07.946089,15.68,27.12,185.8,93.5,30.9
2026-06-28T10:20:07.947779,2.35,27.12,185.8,93.5,30.9
2026-06-28T10:20:07.990600,-25.0,27.12,185.8,93.5,30.9
2026-06-28T10:20:08.041932,-97.07,27.12,185.8,93.5,30.9
2026-06-28T10:20:08.043484,185.25,27.12,185.8,93.6,30.9
2026-06-28T10:20:08.044963,27.11,27.12,185.8,93.6,30.9
2026-06-28T10:20:08.092654,53.3,27.12,185.8,93.6,30.9
2026-06-28T10:20:08.094247,31.61,27.12,185.8,93.6,30.9
2026-06-28T10:20:08.095662,-10.57,27.12,185.8,93.6,30.9
2026-06-28T10:20:08.136945,-24.59,27.12,185.8,93.6,30.9
2026-06-28T10:20:08.138756,-30.32,27.12,185.8,93.6,30.9
2026-06-28T10:20:08.190777,-33.12,27.12,185.8,93.6,30.9
2026-06-28T10:20:08.192657,-47.53,27.12,185.8,93.6,30.9
2026-06-28T10:20:08.239089,-23.97,27.12,185.8,93.6,30.9
2026-06-28T10:20:08.240693,50.9,27.12,185.8,93.6,30.9
2026-06-28T10:20:08.289564,168.2,27.12,185.8,93.6,30.9
2026-06-28T10:20:08.291246,170.08,27.12,185.8,93.6,30.9
2026-06-28T10:20:08.335534,122.65,27.12,185.8,93.5,30.9
2026-06-28T10:20:08.337102,74.97,27.12,185.8,93.5,30.9
2026-06-28T10:20:08.379540,26.78,27.12,185.8,93.5,30.9
2026-06-28T10:20:08.381290,-22.04,27.12,185.8,93.5,30.9
2026-06-28T10:20:08.434678,-30.58,27.12,185.8,93.5,30.9
2026-06-28T10:20:08.436557,-54.33,27.12,185.8,93.5,30.9
2026-06-28T10:20:08.438061,-22.19,27.12,185.8,93.5,30.9
2026-06-28T10:20:08.478563,-33.42,27.12,185.8,93.5,30.9
2026-06-28T10:20:08.479990,-31.43,27.12,185.8,93.5,30.9
2026-06-28T10:20:08.527153,-29.85,27.12,185.8,93.5,30.9
2026-06-28T10:20:08.543463,-84.15,27.12,185.8,93.5,30.9
2026-06-28T10:20:08.585423,10.47,27.12,185.8,93.5,30.9
2026-06-28T10:20:08.586971,-8.97,27.12,185.8,93.5,30.9
2026-06-28T10:20:08.624842,-11.93,27.12,185.8,93.5,30.9
2026-06-28T10:20:08.626390,-177.43,27.12,185.8,93.5,30.9
2026-06-28T10:20:08.678648,101.85,27.12,185.8,93.5,30.9
2026-06-28T10:20:08.680380,58.89,27.12,185.8,93.5,30.9
2026-06-28T10:20:08.722819,57.83,27.12,185.8,93.5,30.9
2026-06-28T10:20:08.724197,11.52,27.12,185.8,93.6,30.9
2026-06-28T10:20:08.774940,-17.39,27.12,185.8,93.6,30.9
2026-06-28T10:20:08.776707,-54.06,27.12,185.8,93.6,30.9
2026-06-28T10:20:08.823738,-61.22,27.12,185.8,93.6,30.9
2026-06-28T10:20:08.825601,-67.94,27.12,185.8,93.6,30.9
2026-06-28T10:20:08.827277,-62.34,27.12,185.8,93.6,30.9
2026-06-28T10:20:08.868930,-37.21,27.12,185.8,93.6,30.9
2026-06-28T10:20:08.872078,62.43,27.12,185.8,93.6,30.9
2026-06-28T10:20:08.923144,150.83,27.12,185.8,93.6,30.9
2026-06-28T10:20:08.924756,157.94,27.12,185.8,93.6,30.9
2026-06-28T10:20:08.966509,107.86,27.12,185.8,93.6,30.9
2026-06-28T10:20:09.014541,32.68,27.12,185.8,93.5,30.9
2026-06-28T10:20:09.030686,22.16,27.12,185.8,93.5,30.9
2026-06-28T10:20:09.032273,-28.02,27.12,185.8,93.5,30.9
2026-06-28T10:20:09.069029,-42.01,27.12,185.8,93.5,30.9
2026-06-28T10:20:09.070593,-56.54,27.12,185.8,93.5,30.9
2026-06-28T10:20:09.111112,-13.98,27.12,185.8,93.5,30.9
2026-06-28T10:20:09.112451,-31.41,27.12,185.8,93.5,30.9
2026-06-28T10:20:09.168179,-25.16,27.12,185.8,93.5,30.9
2026-06-28T10:20:09.170010,-27.81,27.12,185.8,93.5,30.9
2026-06-28T10:20:09.211785,-47.71,27.12,185.8,93.5,30.9
2026-06-28T10:20:09.213277,-56.29,27.12,185.8,93.5,30.9
2026-06-28T10:20:09.215089,19.49,27.12,185.8,93.5,30.9
2026-06-28T10:20:09.258337,16.83,27.12,185.8,93.5,30.9
2026-06-28T10:20:09.259891,-86.91,27.12,185.8,93.5,30.9
2026-06-28T10:20:09.311954,49.96,27.12,185.8,93.5,30.9
2026-06-28T10:20:09.313687,-105.78,27.12,185.8,93.5,30.9
2026-06-28T10:20:09.355967,73.02,27.12,185.8,93.5,30.9
2026-06-28T10:20:09.357644,42.96,27.12,185.8,93.6,30.9
2026-06-28T10:20:09.411244,-10.36,27.12,185.8,93.6,30.9
2026-06-28T10:20:09.412643,-17.2,27.12,185.8,93.6,30.9
2026-06-28T10:20:09.452397,-26.14,27.12,185.8,93.6,30.9
2026-06-28T10:20:09.453830,-50.67,27.12,185.8,93.6,30.9
2026-06-28T10:20:09.501871,-53.56,27.12,185.8,93.6,30.9
2026-06-28T10:20:09.503886,-59.05,27.12,185.8,93.6,30.9
2026-06-28T10:20:09.557020,-21.16,27.12,185.8,93.6,30.9
2026-06-28T10:20:09.559059,66.05,27.12,185.8,93.6,30.9
2026-06-28T10:20:09.560638,145.33,27.12,185.8,93.6,30.9
2026-06-28T10:20:09.600485,147.65,27.12,185.8,93.5,30.9
2026-06-28T10:20:09.601956,117.35,27.12,185.8,93.5,30.9
2026-06-28T10:20:09.647911,69.4,27.12,185.8,93.5,30.9
2026-06-28T10:20:09.666389,25.77,27.12,185.8,93.5,30.9
2026-06-28T10:20:09.701123,-20.57,27.12,185.8,93.5,30.9
2026-06-28T10:20:09.702845,-52.21,27.12,185.8,93.5,30.9
2026-06-28T10:20:09.744650,-13.98,27.12,185.8,93.5,30.9
2026-06-28T10:20:09.746197,-42.27,27.12,185.8,93.5,30.9
2026-06-28T10:20:09.804539,-24.69,27.12,185.8,93.5,30.9
2026-06-28T10:20:09.806213,-50.84,27.12,185.8,93.5,30.9
2026-06-28T10:20:09.846782,-20.91,27.12,185.8,93.5,30.9
2026-06-28T10:20:09.848400,-28.76,27.12,185.8,93.5,30.9
2026-06-28T10:20:09.850009,-20.15,27.12,185.8,93.5,30.9
2026-06-28T10:20:09.890918,-51.41,27.12,185.8,93.5,30.9
2026-06-28T10:20:09.892719,38.84,27.12,185.8,93.5,30.9
2026-06-28T10:20:09.945041,9.61,27.12,185.8,93.6,30.9
2026-06-28T10:20:09.946781,-41.9,27.12,185.8,93.6,30.9
2026-06-28T10:20:09.987696,-41.83,27.12,185.8,93.6,30.9
2026-06-28T10:20:09.988956,-125.74,27.12,185.8,93.6,30.9
2026-06-28T10:20:10.044605,26.85,27.12,185.8,93.6,30.9
2026-06-28T10:20:10.046298,51.87,27.12,185.8,93.6,30.9
2026-06-28T10:20:10.090446,2.35,27.12,185.8,93.6,30.9
2026-06-28T10:20:10.092145,-24.28,27.12,185.8,93.6,30.9
2026-06-28T10:20:10.133751,-12.59,27.12,185.8,93.6,30.9
2026-06-28T10:20:10.135396,-21.6,27.12,185.8,93.6,30.9
2026-06-28T10:20:10.189451,-53.28,27.12,185.8,93.6,30.9
2026-06-28T10:20:10.191420,-55.97,27.12,185.8,93.6,30.9
2026-06-28T10:20:10.232852,-35.24,27.12,185.8,93.6,30.9
2026-06-28T10:20:10.234747,57.85,27.12,185.8,93.6,30.9
2026-06-28T10:20:10.235925,159.44,27.12,185.8,93.6,30.9
2026-06-28T10:20:10.288662,144.19,27.12,185.8,93.6,30.9
2026-06-28T10:20:10.334257,120.96,27.12,185.8,93.6,30.9
2026-06-28T10:20:10.335903,64.24,27.12,185.8,93.5,30.9
2026-06-28T10:20:10.337562,32.8,27.12,185.8,93.5,30.9
2026-06-28T10:20:10.379022,2.34,27.12,185.8,93.5,30.9
2026-06-28T10:20:10.380505,-46.26,27.12,185.8,93.5,30.9
2026-06-28T10:20:10.436396,-47.24,27.12,185.8,93.5,30.9
2026-06-28T10:20:10.438125,-29.22,27.12,185.8,93.5,30.9
2026-06-28T10:20:10.479464,-12.44,27.12,185.8,93.5,30.9
2026-06-28T10:20:10.538669,-39.74,27.12,185.8,93.6,30.9
2026-06-28T10:20:10.540295,-25.14,27.12,185.8,93.6,30.9
2026-06-28T10:20:10.541747,-13.66,27.12,185.8,93.6,30.9
2026-06-28T10:20:10.580184,-49.51,27.12,185.8,93.6,30.9
2026-06-28T10:20:10.581743,-48.64,27.12,185.8,93.6,30.9
2026-06-28T10:20:10.622530,21.35,27.12,185.8,93.6,30.9
2026-06-28T10:20:10.624007,16.51,27.12,185.8,93.6,30.9
2026-06-28T10:20:10.625688,-83.23,27.12,185.8,93.6,30.9
2026-06-28T10:20:10.680356,-126.98,27.12,185.8,93.6,30.9
2026-06-28T10:20:10.729196,-69.33,27.12,185.8,93.6,30.9
2026-06-28T10:20:10.730790,24.55,27.12,185.8,93.6,30.9
2026-06-28T10:20:10.732222,5.8,27.12,185.8,93.6,30.9
2026-06-28T10:20:10.769063,-15.45,27.12,185.8,93.6,30.9
2026-06-28T10:20:10.786374,-15.54,27.12,185.8,93.6,30.9
2026-06-28T10:20:10.826059,-16.72,27.12,185.8,93.6,30.9
2026-06-28T10:20:10.827788,-37.26,27.12,185.8,93.6,30.9
2026-06-28T10:20:10.867046,-43.76,27.12,185.8,93.6,30.9
2026-06-28T10:20:10.868629,-49.75,27.12,185.8,93.6,30.9
2026-06-28T10:20:10.928461,-3.06,27.12,185.8,93.6,30.9
2026-06-28T10:20:10.930193,67.85,27.12,185.8,93.6,30.9
2026-06-28T10:20:10.969051,171.09,27.12,185.8,93.6,30.9
2026-06-28T10:20:10.970785,178.86,27.12,185.8,93.6,30.9
2026-06-28T10:20:10.972423,151.85,27.12,185.8,93.6,30.9
2026-06-28T10:20:11.013014,76.5,27.12,185.8,93.6,30.9
2026-06-28T10:20:11.014980,12.46,27.12,185.8,93.6,30.9
2026-06-28T10:20:11.067906,-35.15,27.12,185.8,93.6,30.9
2026-06-28T10:20:11.069956,-99.42,27.12,185.8,93.6,30.9
2026-06-28T10:20:11.110267,-37.3,27.12,185.8,93.6,30.9
2026-06-28T10:20:11.111639,-62.47,27.12,185.8,93.6,30.9
2026-06-28T10:20:11.159092,-43.6,27.12,185.8,93.6,30.9
2026-06-28T10:20:11.179570,-26.46,27.12,185.8,93.6,30.9
2026-06-28T10:20:11.211462,-13.8,27.12,185.8,93.6,30.9
2026-06-28T10:20:11.257167,-80.12,27.12,185.8,93.6,30.9
2026-06-28T10:20:11.260357,-56.66,27.12,185.8,93.6,30.9
2026-06-28T10:20:11.281262,-0.55,27.12,185.8,93.6,30.9
2026-06-28T10:20:11.312962,4.64,27.12,185.8,93.6,30.9
2026-06-28T10:20:11.314644,-50.79,27.12,185.8,93.6,30.9
2026-06-28T10:20:11.319093,42.2,27.12,185.8,93.6,30.9
2026-06-28T10:20:11.356603,-191.76,27.12,185.8,93.6,30.9
2026-06-28T10:20:11.358251,-36.12,27.12,185.8,93.6,30.9
2026-06-28T10:20:11.411817,-3.87,27.12,185.8,93.6,30.9
2026-06-28T10:20:11.413846,-6.29,27.12,185.8,93.6,30.9
2026-06-28T10:20:11.454971,-7.37,27.12,185.8,93.6,30.9
2026-06-28T10:20:11.456329,-33.86,27.12,185.8,93.6,30.9
2026-06-28T10:20:11.504144,-34.78,27.12,185.8,93.6,30.9
2026-06-28T10:20:11.505740,-19.61,27.12,185.8,93.6,30.9
2026-06-28T10:20:11.554759,-31.97,27.12,185.8,93.6,30.9
2026-06-28T10:20:11.556363,-2.24,27.12,185.8,93.6,30.9
2026-06-28T10:20:11.599644,124.54,27.12,185.8,93.6,30.9
2026-06-28T10:20:11.601136,161.29,27.12,185.8,93.6,30.9
2026-06-28T10:20:11.647399,160.29,27.12,185.8,93.6,30.9
2026-06-28T10:20:11.663384,109.3,27.12,185.8,93.6,30.9
2026-06-28T10:20:11.701060,40.67,27.12,185.8,93.6,30.9
2026-06-28T10:20:11.702660,-7.73,27.12,185.8,93.6,30.9
2026-06-28T10:20:11.704072,-39.36,27.12,185.8,93.6,30.9
2026-06-28T10:20:11.744541,-45.7,27.12,185.8,93.6,30.9
2026-06-28T10:20:11.746403,-38.58,27.12,185.8,93.6,30.9
2026-06-28T10:20:11.799367,4.67,27.12,185.8,93.6,30.9
2026-06-28T10:20:11.800941,-33.15,27.12,185.8,93.6,30.9
2026-06-28T10:20:11.849686,23.16,27.12,185.8,93.6,30.9
2026-06-28T10:20:11.851171,-58.36,27.12,185.8,93.6,30.9
2026-06-28T10:20:11.890306,-23.39,27.12,185.8,93.6,30.9
2026-06-28T10:20:11.891769,28.42,27.12,185.8,93.6,30.9
2026-06-28T10:20:11.944475,-20.14,27.12,185.8,93.6,30.9
2026-06-28T10:20:11.946263,-36.95,27.12,185.8,93.6,30.9
2026-06-28T10:20:11.988377,-67.49,27.12,185.8,93.6,30.9
2026-06-28T10:20:11.989957,-118.35,27.12,185.8,93.6,30.9
2026-06-28T10:20:12.039610,-6.45,27.12,185.8,93.6,30.9
2026-06-28T10:20:12.041137,12.02,27.12,185.8,93.6,30.9
2026-06-28T10:20:12.088400,-4.38,27.12,185.8,93.6,30.9
2026-06-28T10:20:12.090234,2.05,27.12,185.8,93.6,30.9
2026-06-28T10:20:12.091960,-12.83,27.12,185.8,93.6,30.9
2026-06-28T10:20:12.134674,-46.26,27.12,185.8,93.6,30.9
2026-06-28T10:20:12.136375,-60.61,27.12,185.8,93.6,30.9
2026-06-28T10:20:12.194168,-60.04,27.12,185.8,93.6,30.9
2026-06-28T10:20:12.196182,-18.66,27.12,185.8,93.6,30.9
2026-06-28T10:20:12.233496,108.15,27.12,185.8,93.6,30.9
2026-06-28T10:20:12.235255,152.64,27.12,185.8,93.6,30.9
2026-06-28T10:20:12.288469,151.28,27.12,185.8,93.6,30.9
2026-06-28T10:20:12.290364,102.92,27.12,185.8,93.6,30.9
2026-06-28T10:20:12.332541,78.76,27.12,185.8,93.6,30.9
2026-06-28T10:20:12.334268,-21.28,27.12,185.8,93.6,30.9
2026-06-28T10:20:12.376205,-34.91,27.12,185.8,93.6,30.9
2026-06-28T10:20:12.383079,-53.38,27.12,185.8,93.6,30.9
2026-06-28T10:20:12.432485,-49.55,27.12,185.8,93.6,30.9
2026-06-28T10:20:12.434264,-13.52,27.12,185.8,93.6,30.9
2026-06-28T10:20:12.435995,-20.09,27.12,185.8,93.6,30.9
2026-06-28T10:20:12.476332,0.95,27.12,185.8,93.6,30.9
2026-06-28T10:20:12.477877,-30.94,27.12,185.8,93.6,30.9
2026-06-28T10:20:12.523389,-21.33,27.12,185.8,93.6,30.9
2026-06-28T10:20:12.579188,-79.58,27.12,185.8,93.6,30.9
2026-06-28T10:20:12.580757,-39.36,27.12,185.8,93.6,30.9
2026-06-28T10:20:12.582280,18.5,27.12,185.8,93.6,30.9
2026-06-28T10:20:12.621448,0.43,27.12,185.8,93.6,30.9
2026-06-28T10:20:12.623219,-151.85,27.12,185.8,93.6,30.9
2026-06-28T10:20:12.677491,298.75,27.12,185.8,93.6,30.9
2026-06-28T10:20:12.679440,-41.5,27.12,185.8,93.6,30.9
2026-06-28T10:20:12.726469,-69.84,27.12,185.8,93.6,30.9
2026-06-28T10:20:12.728227,-33.28,27.12,185.8,93.6,30.9
2026-06-28T10:20:12.767343,-20.17,27.12,185.8,93.6,30.9
2026-06-28T10:20:12.768935,-29.41,27.12,185.8,93.6,30.9
2026-06-28T10:20:12.770691,-29.23,27.12,185.8,93.6,30.9
2026-06-28T10:20:12.821919,-63.69,27.12,185.8,93.6,30.9
2026-06-28T10:20:12.823614,-66.66,27.12,185.8,93.6,30.9
2026-06-28T10:20:12.864895,-48.65,27.12,185.8,93.6,30.9
2026-06-28T10:20:12.866391,-7.99,27.12,185.8,93.6,30.9
2026-06-28T10:20:12.924237,143.35,27.12,185.8,93.6,30.9
2026-06-28T10:20:12.966332,157.73,27.12,185.8,93.6,30.9
2026-06-28T10:20:12.967940,193.09,27.12,185.8,93.6,30.9
2026-06-28T10:20:12.969430,84.98,27.12,185.8,93.6,30.9
2026-06-28T10:20:13.010509,67.89,27.12,185.8,93.6,30.9
2026-06-28T10:20:13.012339,-8.21,27.12,185.8,93.6,30.9
2026-06-28T10:20:13.065241,-42.63,27.12,185.8,93.6,30.9
2026-06-28T10:20:13.066738,-37.26,27.12,185.8,93.6,30.9
2026-06-28T10:20:13.110292,-44.65,27.12,185.8,93.6,30.9
2026-06-28T10:20:13.113268,-27.34,27.12,185.8,93.6,30.9
2026-06-28T10:20:13.115148,-17.25,27.12,185.8,93.6,30.9
2026-06-28T10:20:13.157180,-17.48,27.12,185.8,93.6,30.9
2026-06-28T10:20:13.173390,-32.09,27.12,185.8,93.6,30.9
2026-06-28T10:20:13.209957,-9.04,27.12,185.8,93.6,30.9
2026-06-28T10:20:13.211432,-52.91,27.12,185.8,93.6,30.9
2026-06-28T10:20:13.254881,-15.79,27.12,185.8,93.6,30.9
2026-06-28T10:20:13.256905,42.16,27.12,185.8,93.6,30.9
2026-06-28T10:20:13.310418,22.22,27.12,185.8,93.6,30.9
2026-06-28T10:20:13.312178,-27.47,27.12,185.8,93.6,30.9
2026-06-28T10:20:13.356006,-40.41,27.12,185.8,93.6,30.9
2026-06-28T10:20:13.357651,-126.2,27.12,185.8,93.6,30.9
2026-06-28T10:20:13.401689,-16.14,27.12,185.8,93.6,30.9
2026-06-28T10:20:13.418733,-6.03,27.12,185.8,93.6,30.9
2026-06-28T10:20:13.455938,10.32,27.12,185.8,93.6,30.9
2026-06-28T10:20:13.499112,-55.58,27.12,185.8,93.6,30.9
2026-06-28T10:20:13.500827,-8.1,27.12,185.8,93.6,30.9
2026-06-28T10:20:13.502487,-48.47,27.12,185.8,93.6,30.9
2026-06-28T10:20:13.504001,-63.03,27.12,185.8,93.7,30.9
2026-06-28T10:20:13.554595,-49.49,27.12,185.8,93.7,30.9
2026-06-28T10:20:13.556252,-11.68,27.12,185.8,93.7,30.9
2026-06-28T10:20:13.604505,99.37,27.12,185.8,93.7,30.9
2026-06-28T10:20:13.606056,168.61,27.12,185.8,93.6,30.9
2026-06-28T10:20:13.645920,195.49,27.12,185.8,93.6,30.9
2026-06-28T10:20:13.699863,120.6,27.12,185.8,93.6,30.9
2026-06-28T10:20:13.701599,76.04,27.12,185.8,93.6,30.9
2026-06-28T10:20:13.703295,3.25,27.12,185.8,93.6,30.9
2026-06-28T10:20:13.743165,-35.31,27.12,185.8,93.6,30.9
2026-06-28T10:20:13.744621,-30.25,27.12,185.8,93.6,30.9
2026-06-28T10:20:13.801842,-43.87,27.12,185.8,93.6,30.9
2026-06-28T10:20:13.803631,-24.64,27.12,185.8,93.6,30.9
2026-06-28T10:20:13.843462,-7.39,27.12,185.8,93.6,30.9
2026-06-28T10:20:13.888543,-39.99,27.12,185.8,93.6,30.9
2026-06-28T10:20:13.890652,-25.46,27.12,185.8,93.6,30.9
2026-06-28T10:20:13.892306,-48.74,27.12,185.8,93.6,30.9
2026-06-28T10:20:13.908391,-19.91,27.12,185.8,93.6,30.9
2026-06-28T10:20:13.943008,36.24,27.12,185.8,93.6,30.9
2026-06-28T10:20:13.944450,12.39,27.12,185.8,93.6,30.9
2026-06-28T10:20:13.987252,-23.01,27.12,185.8,93.6,30.9
2026-06-28T10:20:13.988653,35.67,27.12,185.8,93.6,30.9
2026-06-28T10:20:14.035974,-221.78,27.12,185.8,93.6,30.9
2026-06-28T10:20:14.054456,-25.72,27.12,185.8,93.6,30.9
2026-06-28T10:20:14.088154,23.14,27.12,185.8,93.6,30.9
2026-06-28T10:20:14.089700,-15.44,27.12,185.8,93.6,30.9
2026-06-28T10:20:14.132825,-14.13,27.12,185.8,93.6,30.9
2026-06-28T10:20:14.134611,-33.99,27.12,185.8,93.6,30.9
2026-06-28T10:20:14.187516,-38.88,27.12,185.8,93.6,30.9
2026-06-28T10:20:14.232716,-66.6,27.12,185.8,93.6,30.9
2026-06-28T10:20:14.234478,-46.48,27.12,185.8,93.6,30.9
2026-06-28T10:20:14.236194,12.34,27.12,185.8,93.6,30.9
2026-06-28T10:20:14.237891,52.12,27.12,185.8,93.6,30.9
2026-06-28T10:20:14.279719,189.76,27.12,185.8,93.6,30.9
2026-06-28T10:20:14.300613,134.81,27.12,185.8,93.6,30.9
2026-06-28T10:20:14.326808,124.67,27.12,185.8,93.6,30.9
2026-06-28T10:20:14.328157,57.81,27.12,185.8,93.6,30.9
2026-06-28T10:20:14.377097,7.85,27.12,185.8,93.6,30.9
2026-06-28T10:20:14.432820,-16.87,27.12,185.8,93.6,30.9
2026-06-28T10:20:14.434554,-46.36,27.12,185.8,93.5,30.9
2026-06-28T10:20:14.436256,-28.04,27.12,185.8,93.5,30.9
2026-06-28T10:20:14.484244,-24.67,27.12,185.8,93.5,30.9
2026-06-28T10:20:14.486137,-5.06,27.12,185.8,93.6,30.9
2026-06-28T10:20:14.532680,-21.51,27.12,185.8,93.6,30.9
2026-06-28T10:20:14.534297,-60.0,27.12,185.8,93.6,30.9
2026-06-28T10:20:14.575919,-40.81,27.12,185.8,93.6,30.9
2026-06-28T10:20:14.577374,-37.51,27.12,185.8,93.6,30.9
2026-06-28T10:20:14.621626,20.14,27.12,185.8,93.6,30.9
2026-06-28T10:20:14.623268,-44.01,27.12,185.8,93.6,30.9
2026-06-28T10:20:14.624842,-49.59,27.12,185.8,93.6,30.9
2026-06-28T10:20:14.678386,-141.67,27.12,185.8,93.6,30.9
2026-06-28T10:20:14.679934,18.39,27.12,185.8,93.6,30.9
2026-06-28T10:20:14.721231,21.32,27.12,185.8,93.6,30.9
2026-06-28T10:20:14.722982,24.38,27.12,185.8,93.6,30.9
2026-06-28T10:20:14.766813,9.12,27.12,185.8,93.6,30.9
2026-06-28T10:20:14.768683,-34.26,27.12,185.8,93.6,30.9
2026-06-28T10:20:14.820554,-52.71,27.12,185.8,93.6,30.9
2026-06-28T10:20:14.822483,-71.36,27.12,185.8,93.6,30.9
2026-06-28T10:20:14.864096,-45.35,27.12,185.8,93.6,30.9
2026-06-28T10:20:14.865728,3.66,27.12,185.8,93.6,30.9
2026-06-28T10:20:14.912276,71.96,27.12,185.8,93.6,30.9
2026-06-28T10:20:14.928136,162.75,27.12,185.8,93.6,30.9
2026-06-28T10:20:14.965151,142.97,27.12,185.8,93.6,30.9
2026-06-28T10:20:15.011265,102.83,27.12,185.8,93.6,30.9
2026-06-28T10:20:15.013366,36.21,27.12,185.8,93.6,30.9
2026-06-28T10:20:15.015177,19.35,27.12,185.8,93.6,30.9
2026-06-28T10:20:15.030257,-4.14,27.12,185.8,93.6,30.9
2026-06-28T10:20:15.066622,-46.58,27.12,185.8,93.6,30.9
2026-06-28T10:20:15.068282,-38.1,27.12,185.8,93.6,30.9
2026-06-28T10:20:15.109845,-5.46,27.12,185.8,93.6,30.9
2026-06-28T10:20:15.111439,-12.96,27.12,185.8,93.6,30.9
2026-06-28T10:20:15.157623,-53.39,27.12,185.8,93.6,30.9
2026-06-28T10:20:15.174520,-16.11,27.12,185.8,93.6,30.9
2026-06-28T10:20:15.210473,-31.96,27.12,185.8,93.6,30.9
2026-06-28T10:20:15.212040,-76.3,27.12,185.8,93.6,30.9
2026-06-28T10:20:15.255235,-28.54,27.12,185.8,93.6,30.9
2026-06-28T10:20:15.262353,-18.49,27.12,185.8,93.6,30.9
2026-06-28T10:20:15.309803,0.58,27.12,185.8,93.6,30.9
2026-06-28T10:20:15.311365,-185.08,27.12,185.8,93.6,30.9
2026-06-28T10:20:15.312909,107.77,27.12,185.8,93.6,30.9
2026-06-28T10:20:15.356932,-134.49,27.12,185.8,93.6,30.9
2026-06-28T10:20:15.358868,-3.11,27.12,185.8,93.6,30.9
2026-06-28T10:20:15.399296,26.99,27.12,185.8,93.6,30.9
2026-06-28T10:20:15.401445,-11.69,27.12,185.8,93.6,30.9
2026-06-28T10:20:15.464768,-24.56,27.12,185.8,93.6,30.9
2026-06-28T10:20:15.467869,-44.27,27.12,185.8,93.6,30.9
2026-06-28T10:20:15.521582,-28.1,27.12,185.8,93.6,30.9
2026-06-28T10:20:15.525115,-69.67,27.12,185.8,93.6,30.9
2026-06-28T10:20:15.553151,-43.16,27.12,185.8,93.7,30.9
2026-06-28T10:20:15.554634,21.05,27.12,185.8,93.7,30.9
2026-06-28T10:20:15.599141,127.45,27.12,185.8,93.7,30.9
2026-06-28T10:20:15.643861,153.07,27.12,185.8,93.6,30.9
2026-06-28T10:20:15.645664,117.35,27.12,185.8,93.6,30.9
2026-06-28T10:20:15.647219,72.6,27.12,185.8,93.6,30.9
2026-06-28T10:20:15.662623,44.49,27.12,185.8,93.6,30.9
2026-06-28T10:20:15.697733,5.93,27.12,185.8,93.6,30.9
2026-06-28T10:20:15.699213,-27.4,27.12,185.8,93.6,30.9
2026-06-28T10:20:15.748517,-46.27,27.12,185.8,93.6,30.9
2026-06-28T10:20:15.750431,-2.55,27.12,185.8,93.6,30.9
2026-06-28T10:20:15.791153,-29.39,27.12,185.8,93.6,30.9
2026-06-28T10:20:15.807621,-4.97,27.12,185.8,93.6,30.9
2026-06-28T10:20:15.843770,-30.41,27.12,185.8,93.6,30.9
2026-06-28T10:20:15.845337,-26.12,27.12,185.8,93.6,30.9
2026-06-28T10:20:15.887464,-53.76,27.12,185.8,93.6,30.9
2026-06-28T10:20:15.889047,-39.64,27.12,185.8,93.6,30.9
2026-06-28T10:20:15.945132,-6.48,27.12,185.8,93.6,30.9
2026-06-28T10:20:15.946775,-5.22,27.12,185.8,93.6,30.9
2026-06-28T10:20:15.987850,-84.94,27.12,185.8,93.6,30.9
2026-06-28T10:20:15.989574,149.6,27.12,185.8,93.6,30.9
2026-06-28T10:20:15.991313,-300.16,27.12,185.8,93.6,30.9
2026-06-28T10:20:16.034179,-69.04,27.12,185.8,93.6,30.9
2026-06-28T10:20:16.035761,-12.48,27.12,185.8,93.6,30.9
2026-06-28T10:20:16.087364,3.3,27.12,185.8,93.6,30.9
2026-06-28T10:20:16.089658,-33.48,27.12,185.8,93.6,30.9
2026-06-28T10:20:16.130863,-29.12,27.12,185.8,93.6,30.9
2026-06-28T10:20:16.132186,-71.71,27.12,185.8,93.6,30.9
2026-06-28T10:20:16.186288,-62.31,27.12,185.8,93.6,30.9
2026-06-28T10:20:16.187817,-54.28,27.12,185.8,93.6,30.9
2026-06-28T10:20:16.231748,-2.7,27.12,185.8,93.6,30.9
2026-06-28T10:20:16.233309,120.85,27.12,185.8,93.6,30.9
2026-06-28T10:20:16.277947,169.87,27.12,185.8,93.6,30.9
2026-06-28T10:20:16.279447,187.07,27.12,185.8,93.6,30.9
2026-06-28T10:20:16.332160,79.18,27.12,185.8,93.6,30.9
2026-06-28T10:20:16.334224,31.84,27.12,185.8,93.6,30.9
2026-06-28T10:20:16.375564,7.56,27.12,185.8,93.6,30.9
2026-06-28T10:20:16.377054,-6.98,27.12,185.8,93.6,30.9
2026-06-28T10:20:16.378915,-20.23,27.12,185.8,93.6,30.9
2026-06-28T10:20:16.424336,-42.78,27.12,185.8,93.6,30.9
2026-06-28T10:20:16.444598,-20.15,27.12,185.8,93.6,30.9
2026-06-28T10:20:16.472537,-19.63,27.12,185.8,93.6,30.9
